Frame,RF,VL,BF,TA,SOL,GAS_MED,GAS_LAT,GLUT_MED,GLUT_MAX
1122,0.00946045,0.0541687,0.102539,0.0643921,0.0141907,0.0202942,0.00183105,0.00839233,0.0213623
1122,-0.00579834,0.0790405,0.0514221,0.0382996,0.00350952,-0.0108337,0.0172424,-0.00350952,0.0244141
1122,-0.00579834,0.115814,0.0379944,0.0436401,0.00259399,0.00854492,0.00701904,0.0140381,-0.0102234
1122,0.0408936,0.105591,0.00411987,0.019989,0.0195312,0.0282288,0.0222778,0.0088501,0.0180054
1122,0.0254822,-0.14679,-0.0120544,0.0260925,0.0175476,-0.0212097,0.027771,0.0224304,0.0456238
1122,0.015564,-0.340881,-0.00976562,0.0352478,0.0169373,0.0236511,0.0186157,0.00671387,-0.0212097
1122,-0.00595093,-0.264893,-0.0338745,0.0189209,0.0125122,0.00778198,0.0389099,-0.00213623,0.0358582
1122,0.0193787,-0.0610352,-0.0154114,0.018158,0.00640869,0.00396729,0.018158,0.0291443,-0.0111389
1122,0.0160217,0.205383,0.00396729,0.00350952,-0.00732422,0.00259399,-0.0164795,0.0088501,-0.0364685
1122,0.0233459,0.352325,-0.00213623,0.000457764,0.00320435,0.0117493,0.0158691,-0.00442505,0.0119019
1123,-0.000152588,0.375061,0.0413513,0.00305176,-0.00701904,0.000610352,-0.00656128,-0.00762939,-0.0317383
1123,0.0149536,0.32608,0.0366211,0.00244141,0.00167847,-0.0144958,-0.0172424,-0.0201416,-0.0248718
1123,0.0111389,0.184479,0.018158,0.0062561,0.0192261,0.000610352,-0.0038147,-0.00900269,0.00991821
1123,0.0151062,0.0852966,0.0187683,0.0183105,0.0196838,-0.00167847,-0.0195312,0.0186157,-0.0106812
1123,0.0117493,0.00778198,0.0210571,-0.00854492,-0.00915527,0.0141907,-0.000305176,0.0253296,0.00457764
1123,0.0341797,-0.0497437,0.0314331,0.00534058,0.0241089,0.00259399,0.00274658,0.0314331,-0.00564575
1123,0.00305176,-0.0453186,0.0468445,0.0198364,0.0151062,0.00915527,0.00686646,0.00534058,-0.00595093
1123,0.0204468,-0.0326538,0.0358582,0.0143433,0.0215149,0.025177,0.025177,0.0137329,0.0247192
1123,0.017395,-0.0248718,-0.0294495,0.0137329,0.0276184,-0.00869751,0.00473022,0.0219727,0.0248718
1123,0.00961304,-0.0219727,-0.0363159,-0.00366211,0.00137329,0.0144958,-0.019989,0.00442505,0.00915527
1124,0.0144958,0.00747681,-0.0314331,-0.0167847,-0.000610352,0.0160217,0.0387573,0.00946045,0.0302124
1124,-0.00610352,-0.0405884,-0.0285339,0.00808716,0.0134277,-0.0244141,0.00396729,0.0161743,-0.00549316
1124,0.0105286,-0.0376892,-0.00976562,-0.00946045,-0.00152588,0.012207,-0.0192261,-0.00473022,-0.0112915
1124,0.0198364,-0.0521851,0.0180054,-0.00457764,0.0228882,0.00213623,0.0253296,0.00762939,0.0180054
1124,0.00228882,-0.0535583,0.0234985,0.0234985,0.0161743,0.0117493,-0.00961304,0.0302124,-0.0265503
1124,0.0154114,-0.0314331,0.00350952,0.00213623,0.00747681,0.0088501,0.0160217,0.0328064,0.015564
1124,0.00900269,-0.0128174,0.010376,0.00686646,0.025177,-0.00473022,0.0352478,0.0358582,-0.014801
1124,0.0120544,0.00839233,0.00595093,0.0125122,0.000305176,0.0183105,-0.0128174,0.0286865,-0.0213623
1124,0.010376,0.0674438,0.000610352,0.0270081,-0.0102234,0.0141907,0.0167847,0.0119019,0.0186157
1124,0.0270081,0.040741,-0.0276184,0.0146484,0.0311279,-0.00701904,0.0259399,0.0210571,0.017395
1125,-0.01297,0.000610352,-0.00961304,0.0201416,0.0210571,0.0119019,-0.020752,0.00961304,0.00717163
1125,-0.00411987,0.0157166,-0.0119019,0.017395,0.0350952,0.00320435,0.0196838,-0.00305176,0.0547791
1125,-0.00640869,-0.00778198,-0.00823975,-0.0178528,0.0292969,0.00396729,0.0119019,0.0125122,0.0219727
1125,-0.00991821,0.000305176,0.0210571,-0.0274658,0.00610352,0.0282288,-0.0167847,0.00976562,0.00244141
1125,0.0209045,-0.00305176,-0.0050354,-0.0187683,0.00198364,-0.0236511,0.0062561,0.0227356,0.0338745
1125,0.0279236,-0.00137329,0.00167847,0.00915527,0.0466919,-0.0141907,-0.00778198,0.0346375,0.0375366
1125,0.00656128,0.0131226,0.0172424,-0.0195312,0.0552368,0.018158,0.0360107,0.0178528,0.0193787
1125,0.015564,-0.0106812,0.0193787,-0.00701904,-0.0532532,0.00366211,0.0465393,0.0325012,0.0178528
1125,0.00808716,-0.0167847,0.04776,-0.0183105,-0.0390625,0.0149536,0.00930786,0.0126648,-0.012207
1125,0.00869751,-0.0125122,0.0332642,-0.0157166,0.0117493,0.000152588,0.0773621,0.0112915,0.0146484
1126,0.00427246,-0.0276184,0.0312805,-0.014801,0.0286865,0.0100708,0.0544739,0.0222778,0.00610352
1126,0.00793457,-0.0157166,0.0462341,-0.00579834,-0.00396729,0.00823975,0.0137329,0.0131226,-0.00686646
1126,0.0332642,-0.0398254,0.0259399,0.00305176,0.00350952,-0.00137329,0.0332642,0.0204468,0.0367737
1126,0.00549316,-0.0445557,0.0390625,0.01297,-0.0131226,0.0138855,0.00717163,0.00305176,0.0379944
1126,0.0248718,-0.0587463,0.0334167,-0.00473022,-0.0144958,0.0125122,-0.0418091,-0.00152588,0.0241089
1126,0.0253296,-0.0932312,0.0291443,0.00961304,-0.00244141,-0.00442505,0.00457764,0.00823975,0.050354
1126,0.0161743,-0.0968933,-0.0132751,0.0491333,0.0126648,-0.0088501,-0.00564575,0.00686646,-0.0128174
1126,0.0196838,-0.062561,0.00595093,0.0701904,0.00457764,0.00869751,0.00411987,0.0141907,0.0202942
1126,0.0308228,-0.0267029,0.00656128,0.0309753,0.010376,-0.0115967,0.0537109,0.0289917,0.019989
1126,0.0463867,0.0154114,0.0163269,-0.00946045,0.000762939,0.0250244,0.00549316,0.0151062,0.00427246
1127,0.00762939,-0.0305176,-0.00213623,-0.0579834,0.0177002,0.0192261,0.0518799,0.00976562,0.0242615
1127,0.0254822,-0.100861,-0.0102234,-0.0671387,0.0158691,0.00930786,0.0289917,0.0265503,0.00396729
1127,-0.00198364,-0.114441,0.0105286,-0.0532532,-0.0216675,0.0151062,-0.0201416,0.0151062,-0.00854492
1127,0.0050354,-0.0541687,-0.017395,0.0512695,-0.000762939,0.00671387,0.00442505,0.00167847,0.0161743
1127,-0.0169373,0.0149536,-0.0222778,0.137024,0.0250244,0.00167847,0.0144958,0,-0.00900269
1127,-0.0128174,0.116425,0.00198364,0.0820923,0.0192261,0.0126648,-0.0166321,0.0166321,-0.0161743
1127,-0.0244141,0.159302,-0.0262451,0.0132751,0.0161743,0.00991821,0.020752,-0.00823975,0.0184631
1127,0.00366211,0.165253,-0.0143433,-0.0537109,0.0100708,0.00228882,0.017395,-0.0134277,-0.00518799
1127,0.0123596,0.213928,-0.00137329,-0.0369263,0.00106812,0.00610352,0.0189209,-0.0170898,0.00808716
1127,0.0184631,0.182343,0.0140381,-0.0544739,0.0062561,0.00457764,-0.0222778,-0.000762939,0.01297
1128,0.0180054,0.149841,-0.015564,0.00305176,0.0149536,0.00976562,-0.0285339,-0.0132751,-0.00305176
1128,0.00274658,0.126343,0.00198364,0.0512695,0.0216675,0.00152588,-0.0268555,-0.0213623,0.0343323
1128,0.012207,0.0561523,-0.00976562,0.0305176,0.0326538,0.0123596,-0.04776,-0.0314331,-0.00335693
1128,0.0367737,0.0401306,0.00808716,0.075531,-0.00427246,0.00717163,-0.0698853,-0.020752,0.00274658
1128,0.067749,-0.0192261,-0.0151062,0.140533,0.00686646,0.00930786,-0.0280762,-0.0228882,0.0273132
1128,0.0416565,0.00228882,-0.00534058,0.0939941,0.0152588,-0.00183105,-0.0616455,-0.0212097,0.00579834
1128,0.0177002,0.000305176,-0.0320435,0.0160217,0.00427246,0.00473022,-0.0471497,-0.0357056,0.0102234
1128,-0.0108337,-0.0239563,-0.0152588,0.0723267,0.0192261,0.0117493,-0.00778198,-0.0195312,0.027771
1128,-0.0260925,-0.0517273,0.00717163,0.0396729,0.0241089,0.0134277,-0.0517273,0.015564,-0.0163269
1128,-0.0279236,-0.0141907,0.0202942,0.0152588,0.0840759,0.0178528,-0.0395203,0.00213623,0.0289917
1129,0.0141907,-0.00320435,0.0259399,0.0123596,0.12085,0.00686646,0.0613403,0.0161743,0.0154114
1129,0.0111389,0.00564575,0.0308228,-0.137024,0.184937,0.0143433,0.0271606,0.00808716,0.00488281
1129,0.014801,0.0257874,0.00427246,-0.206146,0.269012,0.0172424,0.0527954,0.0205994,0.00640869
1129,0.0437927,0.0247192,0.017395,-0.290527,0.118866,0.0338745,-0.0141907,0.0279236,0.0123596
1129,0.0430298,0.0366211,0.0338745,-0.22644,-0.225525,0.00823975,-0.0221252,-0.0137329,-0.0038147
1129,0.0430298,0.0227356,0.0447083,-0.118256,-0.126648,0.00930786,0.0140381,-0.0137329,0.0161743
1129,0.0167847,0.00869751,0.0718689,0.0666809,-0.0996399,0.00473022,-0.0405884,-0.000762939,-0.00579834
1129,-0.00427246,-0.0146484,0.0624084,0.128021,-0.105896,-0.0115967,-0.0411987,-0.0163269,0.00473022
1129,-0.0154114,-0.00274658,0.0471497,0.180969,-0.0369263,0.00289917,0.0448608,0.00701904,0.0141907
1129,-0.0238037,-0.00167847,0.0379944,0.124359,-0.0152588,0.0062561,0.0360107,-0.0100708,-0.00228882
1130,0.00335693,-0.00717163,0.0405884,0.0817871,-0.019989,0.0233459,0.0546265,0.00747681,0.0038147
1130,-0.0038147,-0.0161743,0.0511169,0.0849915,-0.0498962,-0.00167847,0.0688171,0.00930786,-0.0088501
1130,0.015564,-0.00366211,0.0587463,0.0624084,-0.0639343,0.00259399,0.000305176,-0.0138855,-0.0137329
1130,0.0326538,0.0152588,0.0164795,-0.0233459,-0.0166321,0.00244141,0.00106812,0.00259399,0.0154114
1130,0.0117493,-0.0578308,0.0294495,-0.00411987,0.015564,0.00183105,-0.070343,0.0312805,-0.0100708
1130,0.00762939,-0.0950623,0.0302124,0.01297,0.00671387,0.0205994,-0.0993347,0.0268555,0.0146484
1130,0.0149536,-0.11673,0.0318909,0.015564,-0.0167847,0.015564,-0.123901,0.00244141,0.00961304
1130,0.00457764,-0.0946045,0.0244141,-0.0288391,0.00686646,-0.000762939,-0.0469971,-0.0012207,-0.0215149
1130,0.00686646,-0.0575256,0.0038147,-0.0450134,-0.0215149,0.00930786,0.0117493,0.0227356,-0.000610352
1130,0.025177,-0.065918,-0.0367737,0.00198364,-0.0473022,0.00823975,-0.0195312,0.0175476,0.0106812
1131,0.0178528,-0.0224304,-0.00152588,-0.00106812,-0.0506592,0.0115967,0.104523,-0.0186157,0.0227356
1131,0.0283813,0.0376892,-0.000915527,0.000457764,0.0288391,0.00549316,0.093689,0.00869751,0.0158691
1131,0.0180054,0.0524902,0.0143433,0.0154114,0.0427246,0.00793457,0.0968933,0.0213623,-0.00946045
1131,0.00167847,0.105591,0.0386047,0.00595093,0.010376,0.0170898,0.0799561,0.0177002,-0.0134277
1131,-0.000915527,0.0958252,0.0248718,0.0109863,0,-0.00518799,0.112457,0.027771,0.0163269
1131,-0.0186157,0.0942993,0.0354004,0.01297,0.00762939,0.0204468,0.0772095,0.0212097,-0.00106812
1131,-0.0109863,-0.114136,0.0392151,0.0196838,0.0161743,0.015564,0.0909424,0.0164795,0.017395
1131,-0.00762939,-0.348816,0.0404358,-0.00427246,0.00686646,0.00640869,0.112457,0.0158691,0.0408936
1131,0.00167847,-0.413513,0.0494385,0.0144958,-0.027771,0.0151062,0.0831604,0.057373,0.00198364
1131,0.00701904,-0.222931,0.0299072,0.00259399,0.0213623,0.0123596,0.115051,0.00305176,0.0431824
1132,0.00473022,0.0106812,0.00686646,-0.0120544,0.0416565,-0.00106812,0.0553894,0.0471497,-0.00701904
1132,-0.00930786,0.270844,0.0161743,-0.00915527,0.0614929,0.00732422,0.0117493,0.0331116,-0.0218201
1132,-0.00152588,0.376434,0.00137329,0.00640869,0.0483704,-0.00686646,0.0157166,0.0323486,0.00976562
1132,0.00762939,0.388489,0.00396729,-0.00793457,0.0535583,0.00747681,-0.000457764,0.0416565,-0.0274658
1132,-0.00411987,0.300903,-0.0108337,0.0149536,0.01297,0.00808716,-0.0175476,0.0137329,-0.0108337
1132,0.0115967,0.181427,-0.0463867,0.0184631,-0.0259399,-0.000915527,0.0306702,0.00656128,0.00991821
1132,0.015564,0.0569153,-0.0256348,0.0285339,-0.012207,-0.000457764,-0.00366211,0.0250244,-0.010376
1132,0.00549316,-0.00854492,0.0192261,0.00640869,0.0175476,-0.00808716,0.00991821,0.00244141,0.0398254
1132,0.0227356,-0.0671387,0.0402832,0.0317383,0.040741,0.0140381,0.0485229,0.0218201,0.0550842
1132,0.0175476,-0.018158,0.00579834,0.014801,0.0363159,0.00732422,0.01297,0.0131226,0.0363159
1133,0.0112915,0.0012207,0.00839233,-0.00366211,0.0341797,0.0167847,0.0593567,0.00259399,0.0517273
1133,0.0149536,-0.00152588,0.000915527,0.00656128,0.0367737,0.00671387,0.0337219,-0.00350952,0.0360107
1133,0.000915527,-0.00305176,-0.0340271,-0.00411987,-0.0259399,0.00793457,-0.0106812,-0.0120544,0.0471497
1133,0.00549316,-0.00350952,-0.0636292,-0.000610352,-0.0856018,-0.00839233,-0.0396729,-0.00961304,0.0709534
1133,0.00732422,-0.0193787,-0.0540161,0.022583,-0.0131226,-0.00762939,-0.088501,-0.0123596,0.0169373
1133,-0.018158,-0.025177,-0.0424194,-0.00488281,0.0120544,0.0143433,-0.0950623,-0.00762939,0.0372314
1133,-0.00183105,-0.000762939,-0.0294495,0.0111389,0.0222778,-0.0192261,-0.113831,0.0132751,0.0106812
1133,-0.00762939,-0.00671387,0.0238037,0.0283813,0.0102234,0.012207,-0.0253296,0.014801,-0.0257874
1133,0.0244141,-0.0141907,0.0140381,-0.0164795,0.0112915,0.01297,0.106964,0.00946045,0.00457764
1133,0.00167847,-0.00640869,0.0505066,0.0215149,0.0489807,0.0149536,0.0643921,0.0192261,0.0210571
1134,0.00610352,-0.0198364,0.0543213,0.0320435,0.0668335,0.0204468,-0.0236511,-0.000915527,0.0161743
1134,0.00183105,-0.00961304,0.0552368,-0.0221252,0.0440979,0.0012207,-0.0105286,-0.019989,0.0286865
1134,0.0112915,-0.0213623,0.0454712,0.0166321,0.0341797,-0.00640869,0.0209045,-0.00961304,0.0205994
1134,0.00411987,-0.00427246,0.017395,-0.0250244,0.0332642,0.0167847,0.015564,-0.00595093,0.0132751
1134,0.0195312,-0.0146484,0.00595093,-0.0012207,-0.00823975,0.00640869,0.0616455,0.00259399,0.0160217
1134,0.0158691,0.00289917,0.00961304,0.00350952,-0.0559998,0.0038147,0.0192261,0.0233459,0.0120544
1134,0.0146484,0.00640869,0.0158691,0.00213623,-0.0413513,0.010376,-0.0143433,0.00549316,0.0222778
1134,0.00411987,-0.0158691,0.00488281,0.00808716,0.00198364,0.0186157,0.057373,-0.00534058,0.0247192
1134,0.00106812,-0.0198364,0.0158691,0.0125122,0.0602722,0.00839233,0.0512695,-0.00457764,-0.0170898
1134,-0.00747681,-0.03479,-0.0143433,0.0219727,0.109711,0.0216675,0.0375366,0.00366211,-0.0038147
1135,0.0285339,-0.0512695,0.0169373,0.0372314,0.0917053,0.0062561,0.0233459,0.0123596,0.000152588
1135,0.0248718,-0.0575256,0.038147,0.00823975,0.115051,-0.00534058,-0.087738,-0.00869751,-0.0192261
1135,0.0242615,-0.0457764,0.0224304,-0.00823975,0.0151062,0.00167847,-0.0619507,0.0120544,0.0335693
1135,0.0299072,-0.146484,0.0154114,0.0178528,-0.0170898,0.00686646,-0.0660706,0.00701904,-0.0201416
1135,0.0234985,-0.284576,0.00808716,0.00518799,-0.00213623,0.00869751,-0.0787354,-0.0177002,-0.0233459
1135,0.0239563,-0.296326,0.00457764,-0.00488281,-0.0175476,0.0038147,-0.0256348,-0.0108337,0.00671387
1135,0.0123596,-0.164948,0.00671387,-0.00900269,-0.0502014,-0.00961304,-0.0483704,0.0180054,-0.025177
1135,0.00869751,-0.0184631,0.0289917,0.00457764,-0.0164795,0.0120544,0.019989,0.0123596,0.00762939
1135,0.00167847,0.127563,0.0125122,0.0131226,0.112305,-0.0117493,0.00457764,0.00457764,0.00564575
1135,0.030365,0.254822,0.0416565,0.0372314,0.122528,0.0128174,0.0209045,0.0050354,-0.039978
1136,0.0463867,0.333862,0.00839233,0.0215149,0.143585,0.0172424,0.0462341,0.0317383,0.00534058
1136,0.0343323,0.258331,-0.00305176,0.0219727,0.0260925,-0.0120544,0.072937,0.0492859,-0.00961304
1136,0.0126648,0.153046,-0.0222778,0.00640869,-0.0811768,0.0241089,0.0366211,0.0183105,-0.0328064
1136,0.0177002,0.0608826,-0.00152588,0.00198364,-0.0862122,-0.000762939,0.0396729,0.0314331,0.00869751
1136,-0.000762939,-0.0276184,0.0270081,0.0112915,-0.127563,-0.000610352,0.00152588,0.0376892,-0.0215149
1136,-0.00396729,-0.107117,0.0434875,-0.0309753,-0.0663757,0.0152588,-0.00823975,0.00320435,0.0166321
1136,0.0180054,-0.146332,0.045166,0,-0.00747681,0.0012207,0.0218201,0.012207,0.0366211
1136,0.00320435,-0.150299,0.045166,-0.0038147,-0.0192261,-0.00610352,-0.0283813,0.0117493,-0.0338745
1136,0.00762939,-0.0450134,0.0430298,-0.0163269,-0.0523376,0.0201416,-0.0212097,-0.00183105,0.0105286
1136,0.0205994,0.0460815,0.0228882,0.00823975,-0.0178528,0.00289917,-0.0189209,-0.0140381,0.0137329
1137,0.00488281,0.105743,0.0563049,0.027771,-0.0137329,0.0114441,-0.0213623,0.00732422,0.0111389
1137,0.0164795,0.175629,0.0115967,-0.0088501,0.00808716,-0.000610352,0.00442505,0.0215149,0.0180054
1137,0.00228882,0.204773,-0.012207,0.0109863,-0.0131226,0.0131226,0.00137329,0.00915527,0.00534058
1137,-0.00564575,0.196991,-0.0257874,-0.00137329,-0.0166321,0.0126648,-0.00152588,0.0289917,0.0164795
1137,-0.00534058,0.177765,-0.0228882,0.0062561,-0.000305176,0.00518799,0.0460815,0.0263977,0.0413513
1137,-0.000457764,0.161591,0.00350952,0.0276184,0.01297,0.0131226,0.0361633,-0.0152588,0.0109863
1137,-0.0215149,0.119019,0.0357056,0.00534058,0.080719,-0.000457764,0.0483704,-0.0259399,0.00823975
1137,-0.0202942,0.0547791,0.0323486,0.00808716,0.154266,-0.012207,0.059967,-0.0305176,0.0221252
1137,-0.0163269,0.0195312,0.0239563,0.0062561,0.0669861,0.0149536,0.0109863,-0.019989,0.00686646
1137,0.0256348,0.0241089,0.00717163,0.0138855,-0.0559998,0.0167847,0.00305176,-0.0193787,0.0384521
1138,0.00167847,0.00305176,-0.000610352,-0.00305176,-0.0773621,-0.0146484,-0.00320435,-0.0100708,0.0473022
1138,-0.00396729,0.00152588,0.0500488,0.00579834,-0.0508118,0.0187683,-0.0341797,0.0177002,0.00396729
1138,0.00396729,-0.03479,0.0202942,0.0268555,-0.00228882,0.0177002,-0.0134277,0.00473022,0.0428772
1138,0.0262451,-0.0395203,0.0253296,0.0201416,0.0494385,0.00946045,0.00244141,0.0224304,0.0387573
1138,0.0389099,-0.0605774,0.0112915,0.0390625,0.0627136,0.0268555,-0.0177002,0.00350952,0.00473022
1138,0.0338745,-0.0675964,-0.00671387,0.0111389,0.0299072,0.0119019,0.0132751,0.0132751,0.0567627
1138,0.020752,-0.0772095,0.00213623,0.0187683,0.0366211,0.00320435,-0.00183105,0.0172424,0.00152588
1138,0.0088501,-0.0486755,-0.0172424,0.000457764,0.0334167,0.0132751,0.00900269,-0.0158691,0.0517273
1138,0.00839233,-0.0469971,-0.010376,0.0112915,0.0219727,-0.00762939,0.0360107,-0.0196838,-0.00244141
1138,0.00564575,0.00198364,-0.00793457,0.0106812,0.0106812,-0.00213623,0.0239563,-0.0190735,-0.00915527
1139,0.00442505,0.0180054,-0.020752,0.00686646,0.0169373,0.0187683,0.0227356,-0.00564575,0.0285339
1139,0.0186157,0.0550842,-0.0311279,-0.00656128,-0.00808716,0.000305176,0.0410461,-0.00717163,0.015564
1139,0.00930786,0.0540161,-0.000457764,0.00900269,-0.0273132,0.00640869,0.0196838,-0.0172424,0.00961304
1139,0.0204468,0.0494385,0.0248718,0.00930786,0.00152588,0.0109863,0.0291443,0.00595093,0.0318909
1139,0.00213623,0.038147,0.0494385,0.019989,0.00335693,0.00793457,0.0204468,0.00549316,0.0158691
1139,0.00320435,0.0654602,0.0596619,0.00930786,-0.00518799,0.00991821,-0.00564575,-0.00259399,0.00228882
1139,0.00411987,0.0283813,0.00350952,-0.00839233,0.00961304,0.00305176,0.0352478,-0.00228882,0.0411987
1139,0.00335693,0.00793457,-0.019989,0.017395,-0.000610352,0.0202942,-0.0114441,0.0146484,-0.00946045
1139,0.00473022,-0.0149536,-0.0495911,0.00213623,-0.00946045,0.00320435,-0.00335693,-0.00549316,-0.0151062
1139,0.0152588,-0.0167847,-0.0442505,-0.0125122,-0.00411987,-0.0126648,0.0114441,-0.00274658,0.0257874
1140,-0.00473022,-0.0257874,-0.0180054,-0.000152588,0.018158,0.0102234,-0.00473022,-0.00762939,-0.0238037
1140,0.00610352,-0.022583,-0.0105286,-0.00350952,0.0158691,0.000305176,-0.0161743,-0.0160217,0.00335693
1140,0.0279236,-0.0123596,-0.0180054,-0.00289917,0.0238037,0.00396729,-0.020752,0.0062561,-0.00961304
1140,0.0198364,0.00244141,0.00717163,0.0234985,0.00473022,0.00427246,-0.0236511,0.000305176,-0.0234985
1140,0.0213623,-0.00488281,-0.000457764,0.0137329,0.0102234,0.010376,0.00518799,0.0250244,0.0062561
1140,0.0254822,-0.0224304,0.00930786,0.0167847,0.0195312,-0.000305176,0.0152588,0.0379944,-0.00930786
1140,0.014801,-0.240173,0.0245667,0.0212097,0.0186157,0.0114441,0.000762939,0.0256348,-0.0230408
1140,0.0213623,-0.458221,0.0202942,-0.0140381,0.0338745,0.00610352,0.0468445,0.0186157,0.00823975
1140,0.0158691,-0.406647,0.0271606,0.0177002,0.0038147,0.00259399,0.0434875,0.0553894,-0.015564
1140,0.00335693,-0.119324,0.0253296,-0.0151062,-0.00167847,0.012207,-0.0125122,0.0431824,0.000152588
1141,0.00289917,0.117188,0.00579834,-0.00244141,0.0358582,-0.00518799,0.000915527,0.0363159,0.0219727
1141,-0.00137329,0.324554,0.042572,0.0205994,0.037384,-0.00152588,-0.0253296,0.0396729,-0.0250244
1141,-0.00564575,0.412903,0.00762939,-0.00518799,0.0393677,-0.00762939,-0.00320435,0.0244141,-0.0189209
1141,-0.00686646,0.359192,0.0325012,0.0233459,0.0502014,0.0192261,0.0111389,0.0227356,-0.000152588
1141,0.0198364,0.262451,0.0332642,0.0187683,0.000915527,0.0222778,0.00228882,0.0120544,-0.0239563
1141,0.0344849,0.150452,0.0227356,0.0242615,-0.0138855,0.000305176,0.0537109,0.0140381,0.00732422
1141,0.0241089,0.0325012,0.0630188,0.00717163,-0.0123596,0.0282288,0.00930786,0.0256348,0.0062561
1141,0.0317383,-0.0326538,0.0502014,0.00350952,-0.0144958,0.0163269,0.00930786,0.00839233,0.0109863
1141,0.0137329,-0.0656128,0.0643921,0.019989,0.0169373,0.00274658,0.0489807,0.0154114,0.0248718
1141,0.0154114,-0.0404358,0.00808716,0.00793457,0.00152588,0.00930786,0.0193787,0.0114441,-0.0312805
1142,0.0143433,-0.0189209,-0.000762939,0.00595093,-0.00839233,0.0332642,0.0177002,0.00320435,0.00167847
1142,0.0100708,-0.0392151,0.00610352,0.0175476,0.0123596,0.00411987,0.0274658,0.0123596,0.0154114
1142,0.00579834,-0.027771,-0.0239563,0.0119019,-0.000915527,0.0395203,-0.0170898,-0.0108337,-0.0242615
1142,0.00991821,-0.0114441,-0.0192261,0.00976562,0.0479126,0.0318909,0.0260925,0.0012207,0.025177
1142,0.00320435,-0.0137329,0.00198364,0.0146484,0.0698853,0.0164795,0.00473022,0.0062561,0.0111389
1142,-0.00915527,-0.0288391,-0.0178528,0.00244141,-0.0349426,0.0140381,-0.00167847,-0.00320435,0.0126648
1142,0.0273132,-0.0650024,-0.062561,0.00320435,-0.0309753,-0.0262451,-0.00610352,0.00274658,0.00518799
1142,0.00564575,-0.0914001,-0.0285339,0.025177,-0.0120544,-0.0238037,-0.0476074,0.0062561,-0.0187683
1142,0.00839233,-0.0724792,-0.0230408,-0.00656128,0.00488281,-0.0212097,-0.0247192,0.00411987,-0.0144958
1142,0.0166321,-0.0630188,-0.0474548,-0.00167847,0.0184631,-0.037384,0.0250244,0.0144958,0.0178528
1143,0.0256348,-0.0398254,-0.0221252,0.0186157,0.00106812,-0.019989,0.00869751,0.0209045,0.00762939
1143,0.0105286,-0.00152588,-0.0247192,-0.0115967,0.00442505,-0.0231934,0.00640869,0.00473022,0.0186157
1143,-0.00930786,0.0628662,-0.0161743,0.0115967,0.0296021,-0.0332642,0.0434875,0.0250244,0.0215149
1143,0.0259399,0.149231,-0.00366211,0.00808716,0.0146484,-0.0143433,0.00442505,0.00305176,-0.0170898
1143,0.00350952,0.173035,0.00213623,0.000305176,0.0398254,-0.0335693,-0.00610352,0.0338745,0.0254822
1143,0.00488281,0.12207,0.0126648,0.000457764,0.0436401,-0.0357056,-0.0357056,0.0297546,-0.0151062
1143,0.00595093,0.0196838,0.0393677,0.0291443,0.0357056,-0.03479,-0.0471497,0.00610352,0.00854492
1143,0.0270081,-0.0674438,0.0364685,0.000457764,0.00198364,-0.0267029,0.00335693,0.0175476,-0.0100708
1143,-0.00915527,-0.0387573,0.0428772,0.0210571,0.0177002,-0.0184631,0.0387573,0.0233459,-0.0350952
1143,-0.0012207,-0.0201416,0.0521851,0.00701904,-0.00656128,0.0105286,0.00289917,-0.00152588,-0.0213623
1144,0.00411987,-0.0674438,0.0285339,-0.00686646,0.014801,-0.0210571,0.0628662,0.0227356,-0.00183105
1144,0.0062561,-0.0904846,0.0442505,0.0112915,0.0273132,-0.0149536,0.00915527,0.0123596,-0.0134277
1144,0.00305176,-0.0878906,0.0183105,0.0152588,-0.0109863,-0.0117493,-0.01297,0.0230408,0.00671387
1144,0.00488281,-0.0740051,0.0291443,0.0143433,0.00579834,-0.012207,0.00228882,0.0450134,0.00457764
1144,0.00930786,-0.0241089,0.0418091,-0.00961304,-0.00991821,-0.0126648,-0.0485229,0.00839233,-0.00350952
1144,0.00915527,-0.00778198,0.0152588,0.0178528,0.0227356,-0.045166,0.0274658,0.0100708,0.0352478
1144,-0.00167847,0.0325012,0.0344849,0.0146484,0.000762939,-0.0263977,0.00976562,0.0128174,-0.0289917
1144,0.00762939,0.119629,0.0218201,0.00701904,-0.0549316,0.000762939,0.0183105,0.0138855,0.0361633
1144,0.0268555,0.171204,0.00595093,0.00747681,-0.0587463,-0.0279236,-0.0169373,0.0149536,0.0421143
1144,-0.00106812,0.168762,0.0296021,0.0346375,-0.0334167,-0.0213623,-0.0894165,0.0183105,-0.00274658
1145,0.00976562,0.0935364,0.055542,-0.0259399,0.0280762,-0.0154114,-0.129547,0.0256348,0.0431824
1145,-0.000610352,-0.0158691,0.0149536,0.00534058,0.0654602,-0.00518799,-0.12085,0.0178528,0.0360107
1145,0.0131226,-0.0424194,0.00244141,0.0178528,0.0178528,-0.00106812,0.0308228,0.017395,0.0144958
1145,0.0259399,-0.0202942,0.00137329,0.0309753,0.0187683,-0.0119019,0.155182,0.0204468,0.0386047
1145,0.0366211,-0.0190735,0.0106812,0.0161743,0.0344849,-0.0256348,0.0650024,0.0120544,0.00473022
1145,0.0209045,-0.0959778,0.0344849,0.00793457,0.0231934,-0.00701904,0.0621033,-0.0120544,0.0239563
1145,0.0286865,-0.106659,0.00900269,0.00549316,0.0434875,-0.0180054,0.138092,0.00534058,-0.00259399
1145,0.0254822,-0.132751,0.00518799,-0.0143433,0.0184631,0.0344849,0.112305,0.019989,-0.0143433
1145,-0.0050354,-0.123138,-0.0390625,-0.00350952,-0.0108337,0.0468445,0.0143433,-0.0105286,0.0154114
1145,0.00274658,-0.0782776,-0.032959,-0.0370789,-0.00427246,0.065918,-0.0602722,-0.00564575,0.0190735
1146,-0.0141907,-0.0256348,-0.00595093,0.0221252,0.0224304,0.0328064,-0.151215,-0.000152588,-0.0239563
1146,0.0378418,0.00152588,-0.0102234,0.0109863,-0.00442505,0.00869751,-0.0823975,-0.00778198,0.00640869
1146,0.0108337,-0.0125122,-0.00839233,0.0366211,0.00991821,-0.018158,-0.0224304,0.0201416,-0.0131226
1146,0.0253296,0.0137329,-0.0306702,0.015564,0.0511169,0.0134277,0.0411987,-0.00747681,-0.00549316
1146,0.0268555,0.0386047,-0.0250244,0.0259399,-0.01297,0.0471497,0.101013,0.000152588,0.0102234
1146,0.0315857,0.0398254,-0.00549316,0.0292969,-0.0309753,0.0531006,0.107574,0.0236511,-0.0279236
1146,0.00564575,0.106506,0.00213623,0.00686646,-0.00396729,0.0665283,0.110321,0.00106812,-0.000152588
1146,0.0273132,0.160522,0.0158691,0.0125122,0.00808716,0.0305176,0.111389,0.0062561,0.0114441
1146,0.00930786,0.146179,0.0328064,-0.0131226,0.0325012,0.0445557,0.0344849,0.0012207,-0.0184631
1146,-0.0216675,0.131073,-0.00747681,-0.0100708,0.119781,0.0306702,-0.0192261,0.00183105,0.0204468
1147,-0.000152588,0.102081,0.00808716,-0.000915527,0.096283,0.0270081,-0.00518799,0.00259399,0.0233459
1147,-0.0108337,0.0923157,0.0161743,0.0149536,0.0271606,0.0288391,-0.0892639,0.00289917,0.00747681
1147,0.00518799,0.0616455,0.0119019,-0.00183105,0.00656128,0.0190735,-0.00717163,0.0233459,0.0332642
1147,-0.00198364,0.0534058,0.0326538,0.014801,-0.0700378,0.0274658,0.0238037,0.0314331,0.0135803
1147,0.00900269,0.0367737,0.0437927,-0.00686646,-0.039978,0.0305176,0.012207,0.00717163,0.0259399
1147,0.0115967,0.00579834,0.0291443,0.00320435,0.0167847,0.0167847,0.00320435,0.0242615,0.0230408
1147,-0.00228882,0.0143433,0.022583,0.0167847,0.00823975,0.0714111,-0.0180054,0.00183105,-0.00991821
1147,-0.00366211,0.0158691,0.00717163,0.0254822,0.0402832,0.0300598,0.037384,0.010376,0.0245667
1147,0.010376,0.00732422,0.0190735,-0.00198364,0.0111389,0.0279236,0.0741577,0.0187683,0.0213623
1147,0.0125122,0.0241089,0.0660706,0.0012207,0.0157166,0.0300598,0.00930786,0.00320435,0.00595093
1148,0.0164795,0.00167847,0.0378418,0.0132751,0.00183105,0.0163269,0.0100708,0.0276184,0.0566101
1148,0.0050354,-0.0012207,0.0502014,0.0180054,-0.0320435,0.0160217,0.00549316,0.0132751,-0.00167847
1148,0.00183105,0.00869751,0.0115967,-0.00808716,0.00167847,0.0244141,-0.0187683,0.0114441,0.00335693
1148,0.020752,0.00473022,-0.000762939,0.0128174,0.0062561,0.0117493,0.0140381,0.0216675,-0.0088501
1148,0.00564575,0.00640869,-0.0088501,0.00137329,-0.00732422,0.0166321,0.0050354,0.0265503,-0.0239563
1148,0.0137329,0.0114441,0.0285339,-0.00610352,-0.00213623,-0.00808716,0.085144,0.0088501,0.0193787
1148,0.0265503,-0.151062,0.0471497,0.0141907,-0.0062561,0.0161743,0.0366211,0.027771,-0.0132751
1148,0.0354004,-0.498505,0.0390625,0.00335693,-0.014801,0.0398254,0.040741,0.00869751,-0.0105286
1148,-0.00640869,-0.785828,0.0270081,0.00671387,0.0224304,0.0230408,0.0765991,-0.00183105,0.0137329
1148,-0.012207,-0.778198,0.022583,0.0157166,0.0422668,0.0534058,0.0311279,-0.00244141,0.0187683
1149,0.0157166,-0.353851,0.0222778,0.00656128,0.0782776,0.0309753,0.0404358,0.00991821,0.00930786
1149,0.0134277,0.161285,0.0274658,0.0135803,0.0732422,0.0161743,0.0704956,0.00946045,0.037384
1149,-0.0128174,0.552216,0.00946045,0.0062561,0.0389099,0.0115967,0.0430298,-0.0088501,0.00915527
1149,-0.00183105,0.732422,0.00839233,0.0149536,-0.0135803,0.00595093,-0.0318909,-0.00274658,0.0158691
1149,-0.0189209,0.715179,-0.0473022,0.00900269,-0.120239,-0.00747681,-0.0245667,0.00289917,-0.00671387
1149,-0.00854492,0.549011,-0.0619507,0.0132751,-0.0595093,0.00793457,-0.0561523,0.0134277,0.00564575
1149,-0.0190735,0.34668,-0.0537109,0.00457764,-0.038147,0.0117493,-0.0273132,-0.00518799,0.0279236
1149,-0.00427246,0.179138,-0.0218201,-0.0088501,-0.0222778,-0.0302124,-0.0454712,0.0448608,-0.00579834
1149,0.00839233,0.0759888,-0.000762939,0.00549316,-0.0198364,0.01297,-0.0918579,0.0302124,-0.0141907
1149,0.00473022,0.0236511,0.00839233,0.00442505,0.0358582,-0.00564575,-0.0720215,0.00305176,0.0177002
1150,0.0236511,-0.0102234,0.0135803,-0.00366211,0.0527954,0.000610352,-0.0463867,0.0228882,-0.00305176
1150,0.0283813,0.00442505,0.0138855,0.0190735,0.0958252,0.00823975,0.0123596,0.00488281,-0.00274658
1150,0.025177,0.00717163,0.0300598,0.0305176,0.0708008,0.000610352,0.0559998,-0.000152588,0.0184631
1150,0.0169373,0.00701904,0.0386047,0.0238037,0.0268555,-0.00274658,0.0260925,-0.00900269,-0.0114441
1150,0.00900269,-0.00839233,0.0453186,0.0201416,0.0332642,-0.00549316,0.0337219,0.0120544,0.0288391
1150,0.000152588,-0.0241089,0.0325012,0.0340271,0.0102234,-0.00793457,0.0543213,-0.0276184,-0.00808716
1150,-0.00915527,-0.0112915,0.0166321,-0.00900269,-0.0382996,0.00808716,0.0265503,-0.00701904,-0.0038147
1150,-0.00244141,-0.0393677,-0.014801,-0.00930786,-0.00488281,0.0126648,0.0395203,0.00564575,0.000457764
1150,0.00823975,-0.0619507,-0.027771,0.0164795,0.00366211,0.00656128,0.0138855,0.019989,-0.0273132
1150,0.0239563,-0.0372314,-0.0146484,-0.00671387,0.00411987,0.0267029,0.0114441,0.0088501,-0.0161743
1151,0.0257874,-0.0302124,-0.00930786,-0.00839233,0.0183105,-0.00228882,0.0253296,0.0494385,0.0158691
1151,0.0154114,-0.0131226,0.0210571,0.00106812,0.0230408,0.0209045,0.0398254,0.0143433,-0.00442505
1151,0.00854492,0.010376,0.00427246,0.00442505,0.0379944,0.0205994,0.0190735,-0.00350952,0.00961304
1151,0.00823975,-0.0117493,0.0109863,0.0146484,0.0431824,0.00579834,0.0198364,0.00549316,0.0299072
1151,0.03479,-0.0465393,0.014801,0.020752,0.015564,0.0346375,-0.0213623,0.019989,-0.0170898
1151,0.0543213,-0.0440979,0.00457764,-0.00534058,0.0157166,0.0126648,0.00991821,0.0317383,0.03479
1151,0.0256348,-0.0422668,0.015564,0.00991821,-0.000610352,0.0100708,-0.0541687,0.00198364,-0.00595093
1151,-0.00747681,-0.0318909,0.0331116,0,0.0463867,0.0265503,-0.0669861,-0.032959,0.0222778
1151,0.00396729,-0.0495911,0.0242615,-0.00152588,0.0817871,0.0331116,-0.0279236,-0.0215149,0.0334167
1151,0.0158691,-0.04776,0.0253296,0.0038147,0.070343,0.0244141,0.0202942,-0.0012207,-0.00686646
1152,0.020752,-0.0389099,0.00350952,-0.00854492,-0.0128174,0.0234985,0.0308228,-0.00305176,0.0192261
1152,0.0216675,-0.0398254,-0.000610352,0.00259399,-0.0584412,-0.0611877,0.0306702,0.00549316,0.00854492
1152,0.00183105,-0.0360107,0.0360107,0.00991821,-0.0735474,-0.0462341,0.0393677,0.0276184,-0.0354004
1152,0.0334167,-0.00442505,0.0282288,0.00274658,-0.0201416,-0.0108337,0.0468445,0.0224304,0.0227356
1152,0.0216675,-0.0228882,0.0509644,0.0202942,0.0271606,0.00518799,0.0531006,0.0205994,0.00930786
1152,-0.00534058,-0.00137329,0.0578308,0.030365,0.0733948,0.0138855,0.0140381,-0.00488281,0.00930786
1152,-0.00793457,0.0062561,0.0320435,0.0221252,0.0837708,0.0361633,0.0219727,-0.0143433,0.0134277
1152,-0.00823975,-0.0238037,0.0227356,0.0270081,0.105896,0.0305176,0.0193787,-0.0221252,-0.0204468
1152,-0.00228882,-0.000610352,0.0192261,-0.0166321,-0.13855,0.0177002,0.0228882,-0.00274658,0.00289917
1152,0.00183105,-0.00640869,0.0120544,0.0154114,-0.108337,0.000610352,0.0135803,0.0135803,0
1153,0.0111389,-0.00305176,0.0100708,0.00579834,-0.0836182,0.017395,0.00946045,0.00274658,0.00213623
1153,0.0369263,0.0282288,0.000915527,-0.0126648,-0.00946045,-0.00366211,0.022583,-0.0012207,0.0392151
1153,0.000610352,0.0202942,0.00274658,0.00152588,0.065918,0.0149536,0.015564,0.00320435,0.00671387
1153,-0.0291443,0.0172424,0.0215149,-0.00106812,0.107727,0.018158,-0.0088501,0.00579834,0.000762939
1153,0.0222778,0.0378418,0.0108337,0.00549316,0.1651,0.000305176,0.000305176,0.0270081,0.027771
1153,-0.00579834,0.0520325,0.0263977,0.00717163,0.130768,0.00823975,-0.0311279,0.039978,0.0158691
1153,0.00366211,0.00976562,0.00488281,0.00137329,-0.254211,0.0088501,-0.0302124,0.0141907,0.0239563
1153,0.0132751,0.0234985,0.0158691,0.038147,-0.147095,0.00686646,0.0236511,0.0311279,0.025177
1153,0.00564575,0.0216675,0.022583,0.00640869,-0.0526428,-0.00991821,0.0119019,0.0367737,0.0131226
1153,0.0154114,0.0291443,0.00946045,-0.00656128,-0.0245667,0.0183105,-0.00335693,0.0138855,0.0514221
1154,0.018158,0.00869751,-0.0192261,0.0177002,0.00183105,0.0102234,-0.00152588,-0.00946045,0.0184631
1154,0.03479,-0.00106812,0.0219727,0.00228882,-0.0444031,-0.00671387,-0.0296021,-0.00228882,0.0166321
1154,0.0411987,-0.0234985,-0.00289917,-0.00915527,-0.0254822,-0.00900269,-0.0741577,-0.00442505,0.0210571
1154,0.00656128,-0.0395203,0.0038147,0.00442505,0.0177002,0.00534058,-0.0979614,0.000457764,-0.0202942
1154,-0.000610352,-0.0125122,0.00305176,0.00259399,0.0234985,0.00564575,-0.108795,-0.00778198,-0.00366211
1154,0.012207,0.00854492,-0.0135803,0.00946045,0.014801,0.00488281,-0.0363159,0.00976562,0.000457764
1154,-0.00976562,0.0141907,-0.00808716,0.0112915,0.00152588,0.0204468,0.132904,-0.0196838,-0.0236511
1154,0.0219727,0.00961304,-0.00671387,0.00762939,0.00244141,0.00289917,0.156403,-0.00473022,-0.0106812
1154,0.00518799,-0.00640869,-0.00900269,0.0280762,0.0296021,0.0105286,0.0561523,-0.00579834,0.0134277
1154,0.00732422,0.0354004,-0.00610352,0.0238037,0.0462341,0.0265503,-0.00106812,-0.0126648,-0.000610352
1155,0.00518799,0.0350952,-0.000305176,0.00717163,0.0778198,0.0358582,0.0648499,-0.00946045,0.017395
1155,-0.00152588,0.0132751,0.0123596,0.027771,0.0593567,0.00259399,0.0320435,0.0164795,-0.027771
1155,-0.00488281,0.0186157,0.0038147,0.00473022,0.0663757,0.0120544,0.0257874,-0.0350952,0.030365
1155,0.0109863,0.00213623,0.00442505,0.0270081,0.0621033,0.00656128,0.0315857,0.0222778,0.0210571
1155,-0.00473022,0.0210571,0.015564,0.0134277,-0.0317383,-0.00152588,-0.00335693,0.0213623,0.0169373
1155,-0.00106812,0.0158691,-0.00350952,0.00534058,-0.0500488,0.00961304,0.0154114,0.00457764,0.0271606
1155,0.00198364,-0.00167847,0.01297,0.00946045,-0.00289917,-0.00274658,0.00793457,0.0230408,0.0100708
1155,-0.00396729,-0.00244141,-0.0109863,-0.00976562,-0.00946045,0.00213623,-0.0193787,-0.00320435,-0.00320435
1155,0.00457764,-0.00289917,0.00320435,-0.0038147,-0.0230408,-0.00137329,0.0119019,-0.00289917,0.035553
1155,0.0114441,-0.0457764,0.0184631,0.0468445,0.00808716,-0.00518799,-0.0137329,0.0123596,0.00137329
1156,0.0115967,-0.0131226,0.0276184,0,0.0263977,0.0137329,0.00762939,0.0062561,0.00534058
1156,0.0239563,-0.0421143,0.0292969,0.00579834,0.0556946,-0.00518799,0.000457764,0.0119019,0.0178528
1156,0.0106812,-0.0292969,0.0434875,0.0184631,0.0602722,0.043335,-0.0326538,0.030365,0.00167847
1156,0.00488281,-0.0238037,0.0387573,0.0012207,0.0897217,0.00976562,-0.0109863,-0.00320435,0.0152588
1156,-0.00823975,-0.0112915,0.0337219,0.0215149,0.0619507,0.0212097,-0.0390625,0.0105286,-0.0453186
1156,-0.00961304,0.0178528,0.0163269,-0.00335693,0.0405884,0.00717163,-0.0439453,-0.00656128,-0.0416565
1156,-0.00183105,0.0488281,0.0273132,-0.00411987,0.0286865,0.0170898,0.0691223,-0.00762939,-0.0143433
1156,-0.0224304,0.00595093,0.0358582,0.0131226,-0.130157,0.00564575,0.0854492,-0.0346375,-0.0631714
1156,0.00473022,-0.288391,0.0354004,0.000610352,-0.0524902,0.0195312,0.0447083,-0.030365,-0.0131226
1156,0.00823975,-0.417328,0.00946045,0.00457764,-0.015564,0.0128174,0.00457764,0.00778198,0.00213623
1157,-0.00656128,-0.234528,-0.00854492,-0.000305176,-0.0283813,0.0126648,-0.0276184,-0.00671387,-0.00808716
1157,0.0305176,0.0238037,-0.00686646,0.0170898,-0.0038147,-0.0012207,0.000762939,-0.00305176,0.0296021
1157,0.0430298,0.244446,-0.000762939,0.0250244,0.0314331,-0.0209045,-0.0450134,0.0309753,0.0111389
1157,0.020752,0.416107,-0.00900269,0.0151062,0.0248718,0.0132751,-0.0793457,0.0141907,0.0369263
1157,0.0395203,0.445251,-0.00732422,0.00778198,0.0238037,-0.00686646,0.015564,0.0236511,0.0637817
1157,0.00671387,0.323181,0.017395,0.0244141,0.0320435,-0.0088501,0.0440979,0.0146484,-0.000152588
1157,0.0112915,0.16571,-0.000915527,0.00610352,0.00167847,0.00411987,0.0985718,0.0344849,0.0427246
1157,0.0228882,0.0463867,-0.0248718,0.0238037,-0.0314331,0.0205994,0.0881958,0.038147,0.0233459
1157,0.0106812,-0.0393677,0.00488281,0.00671387,-0.0228882,0.0372314,0.0312805,0.0457764,0.0123596
1157,0.0308228,-0.247803,-0.0154114,-0.0141907,-0.00228882,0.00762939,0.0752258,0.030365,0.0376892
1158,0.0152588,-0.418243,0.00167847,-0.0212097,-0.0256348,0.00350952,0.0416565,0.0447083,-0.00183105
1158,0.00854492,-0.28183,0.0141907,0.0157166,-0.0291443,0.0126648,0.0259399,0.0160217,-0.000762939
1158,0.0119019,-0.0970459,0.0180054,-0.0134277,0.0219727,-0.0102234,0.018158,0.00747681,0.0354004
1158,0.0112915,0.098877,0.0476074,0.00106812,0.00152588,0.014801,-0.00717163,-0.0196838,-0.0253296
1158,0.0172424,0.225067,0.0283813,-0.00274658,-0.00686646,0.0138855,-0.00854492,-0.0244141,0.0201416
1158,0.012207,0.270691,0.00488281,0.00747681,0.0611877,-0.00152588,0.0337219,-0.00900269,0.0421143
1158,-0.00106812,0.223999,0.0123596,0.0152588,0.0366211,0.0125122,-0.00778198,-0.0050354,0.0427246
1158,0.0175476,0.133209,0.00427246,0.0257874,0.0645447,0.0270081,0.00244141,0.019989,0.0653076
1158,0.0164795,0.0271606,0.000610352,-0.00152588,0.105896,0.0209045,-0.00534058,0.0335693,0.0708008
1158,0.00228882,0.00686646,0.00778198,0.00793457,0.0915527,0.0273132,-0.0119019,0.0177002,0.0587463
1159,0.0328064,0.00640869,0.0163269,0.0288391,0.0961304,0.0112915,0.0160217,0.0204468,0.072937
1159,0.0126648,-0.00442505,0.0332642,0.0222778,0.0990295,0.00915527,-0.0119019,0.0270081,0.0109863
1159,0.0201416,-0.000457764,0.0170898,-0.00427246,0.030365,0.00411987,0.0138855,0.0265503,0.0311279
1159,0.0196838,-0.0120544,-0.00610352,-0.0205994,-0.0819397,0.00518799,0.0282288,0.0106812,0.0149536
1159,0.0231934,-0.0170898,0.00671387,-0.0169373,-0.0112915,0.0236511,-0.0233459,0.032959,-0.0483704
1159,0.0062561,-0.0149536,-0.00701904,-0.00976562,0.0257874,-0.00427246,0.00930786,0.00808716,-0.00198364
1159,-0.00579834,-0.0106812,0.00411987,0.00289917,-0.0262451,0.000152588,0.00183105,0.00701904,-0.0183105
1159,-0.00244141,-0.000915527,0.0553894,0.0125122,-0.0579834,0.00244141,-0.00793457,0.0105286,0.00671387
1159,0.0109863,-0.00976562,0.012207,0.00411987,0.00595093,-0.00244141,0.0282288,0.00244141,-0.0160217
1159,0.0170898,0.0224304,0.0114441,0.00976562,0.0349426,0.0253296,0.0230408,0.0088501,-0.0334167
1160,0.0248718,0.015564,0.0108337,0.00793457,0.0283813,0.0259399,0.0088501,-0.00213623,-0.0234985
1160,0.0216675,-0.0180054,0.0117493,0.0212097,0.00549316,0.0196838,0.0120544,0.0192261,-0.0280762
1160,-0.00411987,-0.0050354,0.0138855,0.020752,-0.0479126,0.0248718,-0.0349426,0.0286865,-0.0390625
1160,-0.00244141,0.0050354,0.00579834,0.00839233,-0.0384521,0.00717163,-0.0131226,0.0012207,0.0123596
1160,0.0242615,0.0205994,0.00198364,0.0201416,-0.00610352,-0.0131226,0.000762939,0.0198364,0.022583
1160,0.0169373,-0.0320435,0.00366211,0.0282288,-0.0268555,0.0218201,-0.0157166,-0.00839233,0.0166321
1160,0.0350952,-0.126038,-0.0224304,0.0012207,-0.00411987,0.012207,0.0205994,0.00900269,0.0366211
1160,-0.0088501,-0.154114,-0.025177,-0.0140381,-0.0100708,0.00564575,-0.0123596,0.0276184,0.0196838
1160,-0.00259399,-0.132446,-0.000152588,-0.00839233,-0.00411987,0.0143433,-0.00869751,0.0164795,0.0239563
1160,0.00991821,-0.0730896,0.0164795,-0.0189209,0.00869751,0.00396729,0.0262451,0.0289917,0.0315857
1161,0.00213623,-0.00900269,0.0320435,0.0146484,0.00457764,0.0178528,0.0102234,0.0190735,0.0012207
1161,-0.00167847,0.105896,0.0398254,0.00564575,0.0157166,0.00534058,0.0410461,-0.00411987,0.0219727
1161,0.0245667,0.137482,0.0402832,0.0300598,0.0166321,0.0244141,-0.00167847,-0.0201416,-0.0192261
1161,-0.00106812,0.140991,0.0578308,0.0378418,0.0178528,0.0151062,-0.070343,-0.00335693,-0.0111389
1161,0.00305176,0.114136,0.0396729,0.0172424,0.0239563,0.0215149,-0.00961304,0.0187683,0.0244141
1161,0.00335693,0.098877,0.0395203,0.0238037,0.0215149,-0.00259399,-0.00183105,0.0431824,-0.00335693
1161,-0.00183105,0.0920105,0.0559998,-0.00198364,0.0012207,0.0202942,0.000152588,0.0268555,0.0419617
1161,0.0088501,0.0837708,0.0276184,0.0152588,0.0419617,0.00579834,0.0222778,0.0273132,0.0215149
1161,0.00488281,0.045929,-0.00915527,0.00305176,0.0245667,-0.00213623,-0.00900269,0.0195312,0.00900269
1161,0.00152588,0.0268555,0.00411987,-0.000152588,0.0233459,0.0125122,0.0102234,0.00610352,0.0239563
1162,0.00213623,0.01297,0.00686646,-0.00854492,0.0367737,-0.0128174,0.0326538,-0.0151062,0.0213623
1162,-0.0138855,-0.00701904,0.017395,0.0196838,0.00366211,-0.00473022,-0.0502014,-0.0312805,-0.00961304
1162,0.0105286,-0.0160217,0.00518799,-0.0012207,0.0146484,-0.00778198,-0.0331116,-0.00350952,0.0376892
1162,0.0135803,-0.0349426,0.0238037,0.0271606,0.0842285,0.00640869,-0.0234985,0.017395,0.0177002
1162,0.00244141,-0.0115967,0.0402832,0.0187683,0.091095,0.0151062,-0.0343323,0.00732422,0.0190735
1162,0.0296021,-0.0418091,0.00869751,0.0256348,0.0498962,0.00396729,0.00686646,0.0209045,0.022583
1162,0.0227356,-0.0408936,0.019989,0.0178528,0.0692749,-0.00488281,0.00564575,0.000610352,0.0177002
1162,0.0184631,-0.102386,0.00976562,0.0062561,-0.0205994,0.00946045,-0.0393677,-0.00991821,0.0553894
1162,0.0286865,-0.128632,0.0012207,0.0357056,-0.16571,-0.0144958,-0.0787354,-0.014801,0.0421143
1162,0.00442505,-0.164032,0.00427246,0.00411987,-0.125885,-0.0131226,-0.0575256,-0.00656128,-0.0102234
1163,0.0288391,-0.185699,-0.0369263,0.00167847,-0.0398254,0.0178528,-0.0450134,-0.00366211,0.0135803
1163,0.0102234,-0.110168,-0.0144958,0.0201416,-0.0285339,-0.00610352,-0.0566101,-0.00228882,-0.0108337
1163,0.01297,-0.00839233,0.0253296,-0.00473022,-0.0233459,-0.00991821,-0.0161743,0.00198364,-0.0253296
1163,0.0491333,0.0814819,0.0413513,-0.00808716,0.0062561,-0.0137329,0.185242,0.00991821,0.0204468
1163,0.0297546,0.0990295,0.0422668,0.0210571,0.045929,-0.00534058,0.125885,0.0541687,-0.00259399
1163,0.038147,0.117035,0.0105286,0.0184631,0.0570679,0.00808716,0.0546265,0.0440979,0.0283813
1163,0.0186157,0.143433,0.00411987,0.00640869,0.0413513,-0.0050354,0.0532532,0.0386047,0.0248718
1163,0.0296021,0.104523,-0.00167847,0.0221252,-0.0100708,0.0172424,0.0332642,0.045929,0.00320435
1163,0.0186157,0.0518799,0.00717163,0.0144958,-0.0186157,0.00152588,0.0375366,0.0138855,0.0328064
1163,0.00595093,0.0115967,0.0119019,0.0244141,0.000305176,-0.00320435,0.0263977,-0.000610352,-0.00762939
1164,0.0106812,-0.0611877,0.012207,0.0143433,-0.00366211,-0.00915527,0.00671387,-0.032959,-0.0050354
1164,0.00778198,-0.0971985,-0.0175476,0.00183105,0.0189209,-0.00656128,0.0335693,-0.0282288,0.0364685
1164,-0.0265503,-0.111847,-0.0369263,0.00640869,0.0105286,0.00350952,0.00549316,-0.00244141,-0.0213623
1164,-0.0306702,-0.0646973,-0.0645447,-0.00518799,0.100403,0.00930786,0,-0.0038147,0.0154114
1164,-0.0038147,-0.0637817,-0.0614929,-0.0245667,0.137024,-0.00473022,0.0537109,0.00961304,-0.0141907
1164,-0.00595093,-0.0706482,-0.00869751,-0.0628662,0.151825,-0.0105286,0.0161743,-0.00289917,-0.0343323
1164,0.027771,0.0149536,-0.00991821,-0.0714111,0.202942,0.0245667,-0.0196838,-0.0331116,-0.00274658
1164,0.0421143,0.0900269,0.0328064,-0.0125122,0.0428772,0.0294495,-0.0566101,-0.0297546,-0.00671387
1164,0.0378418,0.184479,0.0602722,0.128021,-0.190277,0.0154114,-0.0759888,-0.0288391,-0.00488281
1164,0.0201416,0.29129,0.0541687,0.111847,-0.0616455,-0.00167847,0.0100708,-0.032196,0.0331116
1165,0.00320435,0.277863,0.0259399,0.0689697,-0.00335693,0.0331116,0.00610352,-0.0161743,-0.00518799
1165,-0.000457764,-0.0144958,0.0164795,0.0219727,-0.126953,0.0234985,0.0320435,0.00671387,-0.0161743
1165,0.00106812,-0.2388,-0.00473022,-0.00839233,-0.0639343,-0.0183105,0.0984192,0.0274658,-0.00640869
1165,0.00854492,-0.264282,-0.0128174,0.045166,-0.0354004,-0.0100708,0.0434875,0.0170898,-0.00137329
1165,0.0280762,-0.103607,-0.00534058,0.00854492,-0.0183105,0.00610352,0.0666809,0.0268555,0.0195312
1165,-0.0149536,0.169067,-0.0112915,0.00640869,0.00610352,0.0180054,0.0138855,0.0262451,0.00564575
1165,-0.0485229,0.230713,0.00976562,-0.0134277,-0.0256348,0.0314331,-0.0628662,-0.0154114,-0.0012207
1165,-0.000305176,0.128021,-0.00518799,-0.0126648,-0.0183105,0.0152588,-0.0125122,0.00427246,0.0332642
1165,-0.0196838,0.0254822,-0.0088501,-0.000305176,-0.0549316,0.0221252,-0.0415039,0.0183105,0.00305176
1165,0.020752,-0.000610352,0.0114441,0.0190735,-0.00228882,0.0228882,-0.0384521,-0.0137329,0.0274658
1166,0.0585938,0.0088501,0.0154114,0.0111389,0.00747681,-0.0338745,0.0445557,0.00335693,0.0291443
1166,0.0224304,0.0405884,0.0469971,0.00946045,0.00335693,-0.0105286,0.0630188,0.0106812,-0.0161743
1166,0.038147,0.0570679,0.0430298,0.0100708,0.00518799,0.0250244,0.0579834,-0.00564575,0.0169373
1166,0.0331116,0.0343323,0.0369263,0.0131226,-0.0038147,0.00228882,0.0535583,-0.00152588,-0.00259399
1166,0.0378418,0.0776672,0.03479,0.0102234,0.00274658,0.0183105,0.00747681,-0.00152588,-0.0257874
1166,0.0180054,0.164642,0.0201416,0.0125122,0.0436401,-0.00244141,0.0291443,0.0152588,0.0283813
1166,-0.00595093,0.223541,-0.0201416,0.0152588,0.057373,-0.00259399,0.00732422,0.0172424,-0.0202942
1166,-0.00976562,0.235748,-0.00289917,-0.0100708,0.00717163,0.00167847,0.00762939,0.00137329,-0.0105286
1166,0.0274658,0.104218,-0.0158691,-0.00717163,0.00167847,-0.00213623,0.0332642,0.0236511,0.00946045
1166,0.018158,-0.0401306,-0.0276184,-0.0115967,-0.063324,-0.0012207,0.00701904,-0.0050354,-0.015564
1167,0.0115967,-0.114136,0.01297,0.00366211,-0.0132751,-0.0172424,0.0495911,-0.00534058,0.0193787
1167,0.00442505,-0.107117,-0.0216675,-0.00640869,0.00183105,-0.00732422,0.0408936,-0.0228882,0.0291443
1167,-0.00732422,-0.0662231,-0.0158691,0.00396729,0.0308228,0.00183105,-0.010376,-0.014801,0.0382996
1167,-0.00640869,-0.00457764,-0.0126648,-0.00640869,0.0611877,0.0012207,-0.032959,-0.00534058,0.0688171
1167,-0.0196838,0.0727844,0.0354004,-0.0137329,0.0436401,0.0268555,-0.068512,0.025177,0.0296021
1167,0.0151062,0.10849,0.0325012,-0.0186157,0.03479,0.0227356,-0.0134277,0.0654602,0.050354
1167,-0.00595093,0.10025,0.0402832,-0.0193787,0.0708008,-0.0135803,-0.012207,0.0701904,0.0309753
1167,0.00900269,0.0469971,0.0402832,-0.0314331,0.0639343,0.00991821,-0.0300598,0.0582886,0.0186157
1167,0.0218201,-0.000915527,0.0366211,0.00900269,0.0393677,0.0190735,0.000610352,0.058136,0.0363159
1167,-0.00427246,-0.058136,0.032959,0.0382996,0.0357056,-0.0209045,-0.0283813,0.0511169,-0.0297546
1168,-0.0170898,-0.0305176,0.0331116,0.0396729,0.0125122,-0.0012207,-0.045166,-0.0270081,0.00167847
1168,-0.0238037,-0.00335693,0.00808716,0.0271606,0.00137329,-0.00778198,0.0114441,-0.0338745,0.00396729
1168,-0.0448608,-0.0195312,0.0335693,0.0177002,-0.0671387,-0.012207,0.0158691,-0.0256348,-0.0559998
1168,-0.0320435,-0.0193787,0.038147,-0.00457764,-0.0456238,-0.00686646,0.0469971,-0.0457764,-0.0337219
1168,-0.0222778,-0.0285339,0.0166321,0.0411987,-0.0131226,-0.00747681,0.0686646,-0.0379944,-0.00762939
1168,-0.0205994,-0.0537109,0.0492859,0.0384521,0.0402832,0.010376,-0.012207,-0.0265503,-0.0421143
1168,-0.00930786,-0.0471497,0.0317383,0.00427246,0.106354,0.0114441,0.0282288,0.00442505,0.0311279
1168,0.00762939,-0.0375366,0.0062561,0.0436401,0.161743,-0.000457764,0.0201416,0.0305176,0.0245667
1168,0.0117493,-0.0244141,0.0186157,0.0196838,0.23407,0.0128174,0.0062561,0.0123596,0.035553
1168,-0.00518799,-0.0228882,0.017395,0.0177002,0.0474548,-0.00457764,0.0265503,0.0105286,0.0617981
1169,0.00518799,-0.0372314,0.0038147,0.0245667,-0.257416,-0.00183105,0.0247192,0.0335693,0.0314331
1169,0.0210571,-0.0190735,0.0224304,0.00137329,-0.148621,0.00183105,-0.0135803,0.0120544,0.035553
1169,0.0123596,-0.0115967,0.0123596,-0.00198364,-0.0535583,-0.0131226,0.0285339,0.0273132,0.0389099
1169,0.0241089,-0.0144958,0.00473022,0.0132751,-0.0657654,-0.000457764,-0.0115967,0.0195312,-0.019989
1169,0.0294495,-0.0212097,-0.0105286,0.000762939,-0.0337219,-0.000915527,0.00213623,0.0193787,-0.012207
1169,0.0216675,-0.0164795,0.00228882,0.00366211,0.030365,-0.0170898,0.0239563,0.00915527,-0.0315857
1169,0.0105286,-0.0247192,0.0137329,0.00518799,-0.0421143,-0.0062561,-0.0262451,-0.000305176,-0.0315857
1169,0.0454712,-0.00961304,0.0102234,0.00671387,-0.0172424,-0.00473022,0.0279236,0.0138855,0.0263977
1169,0.0502014,-0.0106812,0.0239563,0.0143433,-0.00671387,0.00823975,0.00137329,0.0311279,0.00106812
1169,0.0411987,0.00823975,0.0140381,0.00717163,0.00564575,0.0241089,-0.0183105,0.00823975,0.039978
1170,0.0389099,-0.0376892,-0.00213623,0.020752,0.0292969,0.0132751,0.0144958,0.0535583,0.0480652
1170,0.0588989,0.00869751,-0.00701904,0.00518799,0.0337219,0.0221252,-0.00152588,0.0570679,0.0845337
1170,0.0460815,0.00854492,0.00411987,-0.00640869,0.0236511,0.0161743,0.0157166,0.0360107,0.0695801
1170,0.0231934,0.0108337,0.00686646,0.0430298,0.0219727,0.0184631,0.00396729,-0.0115967,0.0735474
1170,-0.0106812,-0.0338745,0.0340271,-0.00564575,0.00579834,0.0175476,-0.000457764,-0.0344849,0.0308228
1170,-0.00183105,-0.0395203,0.0236511,-0.00900269,0.0213623,0.00137329,0.0325012,-0.00946045,0.0534058
1170,0.00396729,-0.0682068,0.0296021,0.00350952,-0.00595093,0.00915527,0.0152588,0.00839233,0.0123596
1170,0.0187683,-0.12558,0.0209045,-0.00427246,-0.0344849,0.0109863,-0.00595093,0.0109863,0.0196838
1170,0.00488281,-0.164337,0.00732422,0.0177002,-0.0128174,-0.00579834,0.0210571,0.00793457,-0.00579834
1170,0.0152588,-0.123291,0.0115967,-0.000610352,-0.0167847,0.0088501,-0.0170898,0.00259399,-0.0366211
1171,0.0196838,-0.0657654,0.0265503,-0.00915527,-0.00534058,0.014801,-0.000305176,-0.0012207,-0.032959
1171,0.0111389,-0.0138855,0.0196838,-0.010376,0.0411987,0.00411987,0.0285339,0.0193787,-0.0553894
1171,0.0167847,0.0244141,-0.00991821,-0.0062561,0.04776,0.0294495,-0.00274658,-0.019989,-0.0534058
1171,0.0331116,0.0505066,0.00473022,0.0146484,0.0479126,0.0125122,0.020752,0.0114441,-0.00488281
1171,0.022583,0.0549316,0.0239563,0.0230408,0.0358582,0.0227356,-0.0106812,0.0265503,-0.00946045
1171,0.00808716,0.0392151,0.0254822,0.0219727,0.0469971,0.0131226,-0.0126648,0.00915527,0.00350952
1171,-0.00167847,0.000305176,-0.00366211,0.0111389,0.0309753,-0.0428772,0.0323486,0.0247192,0.0306702
1171,-0.0143433,0.00793457,0.0123596,0.018158,0.0189209,-0.000457764,0.00183105,0.0344849,0.00854492
1171,0.00320435,0.0137329,0.0230408,-0.00930786,0.0149536,0.0125122,0.00427246,0.0241089,0.045929
1171,0.00778198,-0.0106812,0.00473022,0.0105286,0.00915527,-0.00762939,0.0158691,0.0138855,0.025177
1172,-0.0128174,0.022583,-0.000152588,-0.0202942,-0.015564,-0.00732422,0.00396729,-0.000152588,0.00747681
1172,0.00686646,0.0852966,0.00564575,-0.00701904,-0.0157166,-0.0106812,0.0140381,-0.0120544,0.0279236
1172,-0.00915527,0.117645,-0.00946045,0.0144958,-0.0291443,0.00854492,-0.00473022,-0.014801,-0.00198364
1172,-0.00396729,0.0164795,-0.0134277,-0.00213623,-0.00595093,0.0323486,0.00244141,-0.0434875,-0.0141907
1172,0.0119019,-0.287476,-0.0062561,0.0149536,0.00488281,0.0134277,0.0317383,-0.00732422,-0.0230408
1172,-0.00518799,-0.370789,0.0143433,0.0131226,0.0299072,0.022583,0.0131226,0.0193787,-0.0289917
1172,0.00762939,-0.19165,0.00595093,0.00686646,0.0643921,0.00610352,0.00701904,0.0250244,0.00427246
1172,0.0102234,-0.0712585,0.0111389,0.015564,0.0340271,-0.00183105,-0.00411987,0.0415039,-0.0186157
1172,-0.00595093,-0.101013,0.00640869,0.0265503,0.0167847,0.0312805,0.00869751,0.0115967,-0.043335
1172,0.0164795,0.0132751,0.00335693,0.0221252,0.0126648,0.000610352,0.0358582,0.0263977,-0.0146484
1173,0.020752,0.137787,-0.00411987,0.00671387,0.0231934,0.0137329,0.00106812,0.0323486,-0.00961304
1173,0.00701904,0.304108,-0.00595093,-0.00701904,0.00473022,0.017395,-0.0163269,-0.0117493,0.0151062
1173,0.0175476,0.457001,0.00213623,0.0137329,0.0279236,-0.00854492,0.0274658,0.000610352,0.0604248
1173,0.00335693,0.534058,-0.00213623,0.00686646,-0.00457764,0.00686646,-0.00610352,-0.00717163,0.0163269
1173,0.00579834,0.313873,-0.0126648,-0.0114441,-0.0164795,0.0112915,0.00457764,0.0184631,0.0836182
1173,0.00656128,-0.0230408,0.00854492,0.0163269,-0.000152588,0.019989,0.0231934,0.0294495,0.0479126
1173,-0.0224304,-0.149841,0.0195312,0.0175476,-0.00274658,-0.00244141,0.00686646,0.0553894,0.0393677
1173,0.0175476,-0.0846863,0.050354,0.018158,0.0382996,0.0141907,0.0276184,0.0285339,0.0689697
1173,0.0247192,0.062561,0.0450134,0.0189209,0.0320435,0.0135803,0.0167847,0.0213623,0.0126648
1173,0.0149536,0.213623,0.0494385,0.00183105,0.0190735,0.00747681,0.0106812,0.00411987,-0.00350952
1174,0.0175476,0.271759,0.020752,0.00595093,0.0352478,0.00915527,0.0337219,-0.0198364,-0.00976562
1174,0.00579834,0.212708,0.038147,0.0312805,0.0144958,0.0175476,-0.00747681,-0.0177002,-0.0265503
1174,0.0112915,0.111237,-0.000305176,-0.0120544,0.0105286,0.00167847,0.00686646,0.0109863,-0.0119019
1174,0.0170898,-0.0946045,-0.0363159,0.0109863,0.0311279,0.0117493,0.017395,0.0350952,-0.00106812
1174,0.0166321,-0.350494,-0.037384,0.0263977,0.0126648,0.0167847,-0.00350952,-0.00778198,-0.0280762
1174,0.0222778,-0.298309,-0.0326538,-0.00778198,0.0260925,-0.00747681,0.015564,-0.0111389,0.0112915
1174,0.00915527,-0.0982666,-0.020752,0.025177,0.0613403,-0.00213623,-0.00442505,0.0135803,-0.00396729
1174,-0.00167847,0.115051,-0.0204468,0.0189209,0.091095,0.00747681,0.00152588,0.0190735,0.0312805
1174,-0.000152588,0.213928,-0.0244141,0.00411987,0.0517273,0.00656128,0.0111389,0.00320435,0.0294495
1174,0.00244141,0.210419,-0.0244141,0.00930786,-0.0473022,0.0132751,-0.0102234,0.0189209,-0.00320435
1175,0.00518799,0.137482,-0.0265503,-0.0109863,-0.0895691,0.0270081,-0.00869751,0.0210571,0.0152588
1175,0.0158691,0.0604248,-0.0204468,0.0169373,-0.0259399,0.0108337,0.0195312,0.0279236,0.0369263
1175,0.0088501,0.0114441,-0.0137329,0.0202942,-0.0144958,0.014801,-0.00488281,0.0158691,0.020752
1175,0.0569153,-0.0288391,-0.0239563,0.00564575,-0.0520325,0.0289917,0.0227356,-0.010376,0.0704956
1175,0.0271606,-0.0546265,-0.0161743,0.0141907,-0.0297546,-0.00183105,0.00534058,-0.0160217,0.071106
1175,-0.0120544,-0.0350952,-0.0163269,0.00274658,-0.0198364,0.0263977,0.00167847,0.00305176,0.0743103
1175,0.00732422,-0.0483704,-0.0259399,0.00808716,-0.0164795,0.00335693,0.0195312,-0.00564575,0.0805664
1175,-0.0216675,-0.0453186,0.00152588,0.00976562,-0.0390625,-0.00350952,0.00442505,-0.0248718,0.0471497
1175,-0.00305176,-0.0184631,0.0476074,-0.0120544,-0.00198364,0.0193787,-0.0306702,-0.0201416,0.0325012
1175,-0.00534058,-0.0331116,0.0413513,0.00289917,0.0344849,-0.00274658,0.00991821,-0.00350952,0.0228882
1176,0.00274658,-0.0190735,0.065918,-0.000152588,0.000457764,0.0169373,-0.000762939,-0.0158691,-0.00167847
1176,0.0141907,-0.0976562,0.0440979,0.00411987,-0.00427246,0.00320435,0.00305176,0.00701904,0.00976562
1176,-0.000152588,-0.130157,0.0263977,0.0117493,0.0289917,0.00671387,0.0195312,-0.00411987,-0.0213623
1176,0.0332642,-0.136414,0.020752,0.01297,0.0369263,0.0202942,-0.00411987,-0.0402832,-0.00930786
1176,0.0292969,-0.127869,0.0193787,0.00930786,0.0131226,0.000305176,0.0260925,-0.00366211,-0.00213623
1176,0.0196838,-0.106201,0.00549316,0.0312805,-0.00549316,0.0193787,0.0111389,-0.01297,-0.032959
1176,0.0323486,-0.0222778,0.00701904,0.0340271,0.0135803,0.0260925,0.0427246,0.0190735,0.00579834
1176,0.0254822,0.0149536,-0.000915527,0.0285339,0.0276184,0.00991821,0.0392151,0.00579834,-0.00823975
1176,0.00350952,0.0582886,0.0263977,0.0134277,-0.00152588,0.0198364,-0.00640869,0.0315857,-0.0144958
1176,0.0137329,0.0878906,-0.000762939,0.0146484,-0.00595093,0.0135803,0.0218201,0.017395,0.0119019
1177,-0.0112915,0.0967407,0.018158,-0.00823975,-0.0238037,0.00549316,-0.0038147,0.030365,-0.010376
1177,-0.0128174,0.0950623,0.0167847,-0.0236511,-0.0109863,0.000305176,-0.00152588,0.0193787,0.00823975
1177,0.0212097,0.102997,0.00823975,-0.00289917,0.00137329,0.00564575,0.00366211,0.0215149,0.0195312
1177,-0.00900269,0.0788879,0.0114441,-0.00152588,-0.0102234,0.0088501,-0.0175476,0.0151062,0.0161743
1177,-0.00473022,0.0642395,0.0125122,0.000152588,0.0291443,0.00274658,0.0143433,0.00106812,0.0114441
1177,-0.00930786,0.0553894,0.0497437,0.0396729,0.0497437,0.000762939,-0.010376,0.0167847,-0.00610352
1177,0.0219727,0.0323486,0.017395,0.00411987,0.00747681,0.0215149,0.000457764,0.00152588,-0.00289917
1177,0.0172424,0.010376,0.0265503,-0.00106812,0.0320435,0.0205994,-0.00595093,0.0140381,0.0233459
1177,0.00823975,0.0100708,0.052948,0.0297546,0.0184631,0.0198364,-0.00457764,0.0271606,0.00534058
1177,0.00259399,-0.014801,0.0430298,0.0146484,0.0062561,0.0183105,0.00366211,0.0112915,0.0128174
1178,0.027771,-0.019989,0.0128174,-0.00411987,0.00778198,0.00808716,0.0260925,0.0267029,0.0276184
1178,0.0038147,0.000762939,0.00656128,0.0125122,-0.0382996,0.00518799,-0.0062561,0.0517273,0.012207
1178,0.0105286,0.0238037,0.00854492,0.00396729,-0.0462341,-0.00732422,0.0215149,0.0309753,0.0335693
1178,-0.00579834,-0.0259399,0.0164795,0.00534058,-0.0312805,-0.00518799,0.000457764,0.0720215,0.00335693
1178,-0.00976562,-0.0248718,0.00823975,-0.0183105,0.0221252,0.00549316,0.00930786,0.0360107,-0.000152588
1178,-0.00762939,-0.0421143,0.0102234,0.00793457,0.0721741,0.00671387,0.0242615,0.0387573,0.00289917
1178,0.00762939,-0.0794983,0.0115967,-0.00183105,0.0648499,-0.00640869,-0.00427246,0.0416565,-0.0126648
1178,-0.00213623,-0.0167847,0.0230408,0.00442505,0.0280762,0.0102234,-0.00488281,0.0143433,-0.000152588
1178,0.0273132,0.0524902,0.0169373,0.0146484,0.0578308,0.00198364,0.0233459,-0.0154114,0.00152588
1178,0.0262451,0.0880432,0.032196,-0.00106812,0.0160217,-0.0120544,-0.010376,0.017395,-0.0288391
1179,0.0489807,0.0553894,0.0161743,0.0506592,-0.0360107,0.0106812,0.00411987,-0.00930786,0.00106812
1179,0.0404358,0.0144958,0.0288391,0.0212097,-0.0305176,0.030365,0.0537109,0.0152588,0.00274658
1179,0.0276184,0.0135803,0.0279236,0.00686646,0.0125122,0.0184631,0.00823975,0.00976562,-0.0387573
1179,0.0437927,0.0202942,0.0239563,-0.00152588,0.00900269,0.00808716,0.03479,-0.0276184,-0.00289917
1179,0.0379944,0.010376,0.0259399,0.0125122,-0.0135803,0.0195312,-0.00244141,0.00640869,-0.0247192
1179,0.0131226,0.0187683,0.0186157,-0.010376,-0.00183105,0.00793457,0.0106812,-0.0109863,-0.0135803
1179,-0.000305176,-0.0204468,0.00457764,-0.00106812,0.0479126,-0.0141907,0.0202942,0.00640869,-0.0166321
1179,-0.00961304,-0.0265503,0.0196838,-0.00488281,0.0512695,0.0195312,-0.0190735,-0.0038147,-0.0393677
1179,0.0343323,-0.0457764,-0.00762939,0.00717163,0.0532532,-0.00457764,0.00320435,-0.00106812,0.0213623
1179,0.0367737,-0.148163,0.012207,-0.00640869,0.0701904,-0.00579834,-0.0323486,0.0205994,0.0109863
1180,0.0196838,-0.277405,-0.00717163,-0.00488281,0.0202942,0.00808716,-0.0221252,-0.000610352,-0.0119019
1180,0.0132751,-0.313416,0.000762939,0.00259399,-0.17868,0.00686646,0.0259399,0.0201416,0.0219727
1180,0.00778198,-0.249176,0.0135803,-0.00289917,-0.055542,0.00534058,-0.00747681,0.0115967,-0.0300598
1180,0.0144958,-0.132141,0.0157166,0.00823975,0.0344849,0.0215149,0.0189209,0.0119019,0.0216675
1180,0.0230408,-0.00595093,0.00518799,0.0115967,0.105591,0.0300598,0.0146484,0.0296021,-0.00762939
1180,0.0143433,0.144653,0.00427246,0.0157166,0.157623,0.0209045,0.00228882,0.0465393,0.0186157
1180,0.00457764,0.00747681,-0.00366211,0.000305176,0.188599,0.00915527,0.0184631,0.0292969,0.0404358
1180,0.0151062,-0.207214,0.0134277,0.0221252,0.155182,0.00213623,0.0109863,0.0294495,0.0212097
1180,-0.0038147,-0.222473,0.0469971,0.00732422,0.0642395,0.0219727,-0.00488281,0.0224304,0.06073
1180,0.00411987,-0.0961304,0.0267029,-0.00991821,0.0497437,-0.00579834,0.0254822,0.0267029,0.0106812
1181,0.000610352,0.155945,0.0259399,-0.00152588,-0.234833,0.0111389,-0.00396729,0.00137329,-0.015564
1181,-0.00335693,0.415039,0.0256348,-0.00152588,-0.218506,0.0119019,-0.000305176,-0.0299072,0.0192261
1181,-0.00152588,0.549927,0.00610352,-0.0112915,-0.0720215,-0.00335693,0.0215149,-0.0192261,0.00808716
1181,0.000762939,0.423431,0.0100708,0.00320435,0.0578308,-0.00991821,-0.00869751,-0.0372314,-0.0119019
1181,0.00808716,0.17334,0.0177002,-0.00228882,0.0889587,-0.00640869,0.035553,0.000762939,0.0205994
1181,-0.00289917,-0.30014,0.0260925,0.0196838,0.0177002,0.0154114,-0.00976562,0.0216675,-0.00900269
1181,0.00671387,-0.449982,0.0166321,0.0141907,-0.147552,0.017395,0.0088501,0.0125122,-0.0234985
1181,0.00305176,-0.326996,0.0292969,0.0354004,-0.0799561,0.0213623,0.0100708,0.0140381,-0.0062561
1181,-0.0157166,-0.0363159,0.0254822,0.00778198,-0.0447083,0.0242615,-0.019989,-0.0109863,-0.0123596
1181,0.00167847,0.262909,0.0233459,0.00579834,-0.0146484,0.00762939,0.0221252,-0.00732422,0.0239563
1182,0.00747681,0.460205,0.0375366,0.0201416,-0.0578308,0.00213623,-0.00350952,0.0256348,-0.00228882
1182,-0.0149536,0.48172,0.0445557,-0.00900269,-0.0810242,0.0202942,0.0212097,0.0109863,0.0265503
1182,-0.0106812,0.389252,0.0144958,0.0166321,-0.0424194,0.0141907,0.0241089,0.020752,0.042572
1182,-0.0157166,0.205994,0.0187683,0.0305176,0.0242615,0.00915527,0.0312805,-0.00488281,0.00610352
1182,0.0248718,0.0767517,0.017395,0.00579834,0.0764465,0.0186157,-0.00274658,0.00213623,-0.00320435
1182,0.0250244,0.00869751,0.00869751,0.0125122,0.0941467,0.00946045,0.00930786,0.0143433,0.0306702
1182,0.0375366,-0.0535583,0.00961304,0.0167847,0.0944519,-0.00106812,0.00915527,-0.0158691,0.00274658
1182,0.0254822,-0.0733948,-0.0212097,0.0195312,0.091095,0.00396729,0.0204468,-0.0270081,0.0354004
1182,0.0202942,-0.050354,-0.06073,0.0170898,0.0253296,-0.00427246,0.00473022,0.00198364,0.0050354
1182,0.0300598,-0.1091,-0.0315857,0.0126648,-0.124054,0.0263977,-0.0012207,0.00259399,0.00747681
1183,0.0151062,-0.19989,-0.0265503,-0.00335693,-0.0343323,-0.0151062,0.0160217,0.0610352,-0.00106812
1183,0.010376,-0.252838,-0.00900269,-0.000152588,-0.00320435,0.00274658,-0.0114441,0.0547791,-0.0270081
1183,0.0506592,-0.215759,0.000610352,0.00640869,0.0177002,0.000610352,-0.0038147,0.018158,0.00213623
1183,0.0498962,-0.0920105,0.00457764,-0.00106812,0.0401306,0.0117493,0.0282288,0.0196838,-0.00946045
1183,0.0172424,0.117035,0.0250244,-0.012207,0.0350952,-0.00350952,-0.0146484,0.0325012,-0.0213623
1183,0.0231934,0.268555,0.00457764,-0.0201416,-0.0201416,0.0184631,0.0279236,0.0115967,0.000305176
1183,0.01297,0.32547,0.0183105,-0.00518799,-0.0508118,0.00640869,0.00656128,0.0239563,-0.00366211
1183,0.00610352,0.30777,-0.0088501,-0.00442505,-0.0465393,0.0119019,-0.00961304,0.00732422,0.022583
1183,0.00350952,0.207062,-0.00991821,0.00595093,-0.0105286,0.000305176,0.00793457,0.0109863,0.0262451
1183,0.0114441,0.135498,-0.00198364,0.0088501,-0.0157166,0.0062561,-0.00137329,-0.0209045,0.0512695
1184,-0.00213623,0.0733948,0.00213623,-0.0175476,0.0448608,-0.017395,0.0291443,-0.00854492,0.0816345
1184,-0.000152588,0.00701904,-0.0178528,-0.000762939,0.0367737,0.0088501,0.0234985,-0.0315857,0.0314331
1184,0.0108337,-0.0816345,0.00869751,0.00793457,0.0679016,0.0167847,-0.00411987,-0.0263977,0.0315857
1184,0.0318909,-0.147858,0.0254822,-0.00457764,0.0759888,0.00747681,0.0328064,-0.00106812,0.0505066
1184,0.00976562,-0.173798,0.0146484,0.00411987,0.0924683,0.0038147,0.000305176,0.00854492,0.00793457
1184,0.00473022,-0.155334,0.045929,0.00259399,0.0950623,0.00900269,-0.0164795,0.0114441,-0.0157166
1184,0.00183105,-0.119171,0.0688171,0.017395,0.0733948,0.0132751,0.0213623,0.00396729,-0.0146484
1184,-0.019989,-0.0556946,0.0524902,0.00869751,-0.0306702,0.0204468,-0.00106812,-0.00778198,-0.0357056
1184,-0.014801,-0.00991821,0.0505066,0.00854492,-0.00762939,0.014801,0.01297,0.00289917,-0.00213623
1184,-0.0328064,0.0515747,0.0674438,0.0215149,0.00793457,0.0114441,0.0123596,0.0230408,-0.0254822
1185,-0.0537109,0.0938416,0.0331116,0.0215149,-0.000152588,0.00137329,-0.0138855,-0.000305176,-0.0309753
1185,-0.0387573,0.0785828,-0.00823975,0.0231934,0.0231934,-0.0238037,0.032959,0.00274658,0.00106812
1185,0.000457764,0.0326538,-0.0408936,0.0192261,-0.0186157,0.000610352,0.0108337,0.00823975,-0.00656128
1185,-0.00701904,0.0430298,-0.0440979,0.000305176,0.00579834,0.00930786,-0.00228882,0.00610352,-0.00473022
1185,0.0143433,0.0430298,-0.027771,0.0167847,0.0883484,0.00808716,0.0109863,0.0296021,0.00732422
1185,-0.00579834,0.0311279,0.0172424,0.0183105,0.156555,0.0125122,-0.0126648,0.0250244,-0.0088501
1185,-0.0108337,-0.00595093,0.0164795,-0.00427246,0.248566,0.000610352,0.0228882,0.0157166,0.0410461
1185,0.0241089,-0.0442505,0.00793457,0.030365,0.307312,-0.000762939,-0.00106812,0.00564575,0.0421143
1185,0.0367737,-0.0852966,0.0135803,0.0088501,0.0961304,0.0215149,0.000457764,-0.0236511,0.0444031
1185,0.0567627,-0.0971985,0.0239563,-0.00152588,-0.0674438,0.00228882,0.0309753,0.0213623,0.0616455
1186,0.0439453,-0.0775146,0.0201416,0.00946045,-0.302734,0.00411987,-0.0151062,0.0294495,0.0108337
1186,0.0553894,-0.0260925,0.0205994,0.0038147,-0.224915,0.0183105,0.00228882,-0.00473022,0.0508118
1186,0.0180054,0.0317383,-0.00396729,0.00274658,-0.0656128,-0.00411987,0.0253296,-0.0187683,0.0393677
1186,-0.00686646,0.0631714,0.00534058,-0.00717163,-0.0268555,0.0231934,0.00213623,0.00579834,0.00732422
1186,-0.000762939,0.0512695,0.010376,0.00411987,-0.00305176,0.00488281,0.0227356,-0.0106812,0.0547791
1186,-0.0184631,-0.00289917,0.015564,0.0115967,-0.102997,0.00228882,0.0236511,0.0141907,0.0166321
1186,0.0111389,-0.00350952,0.00946045,0.00320435,-0.128937,0.00732422,-0.0163269,0.014801,0.000305176
1186,0.0387573,-0.03479,-0.018158,0.0141907,-0.0448608,-0.0161743,0.0282288,-0.00244141,0.0218201
1186,0.0375366,-0.0593567,0.0209045,0.0111389,-0.014801,-0.00747681,-0.0050354,0.0338745,-0.0238037
1186,0.0242615,-0.0386047,0.0169373,-0.00915527,0.0175476,0.00534058,0.000762939,0.0114441,0.0112915
1187,0.0410461,-0.0926208,0.0167847,0.0170898,0.0288391,-0.0152588,0.00823975,0.0257874,0.00869751
1187,0.0544739,-0.0663757,0.0114441,0.0224304,0.0157166,0.017395,-0.0050354,0.00366211,-0.0311279
1187,0.0497437,-0.0382996,0.018158,0.012207,-0.00595093,0.00717163,0.0259399,0.00427246,0.0274658
1187,0.0596619,-0.00701904,0.0170898,0.0309753,-0.0668335,0.0190735,0.000305176,0.0192261,0.0012207
1187,0.0393677,0.0250244,0.0553894,0.0292969,-0.0415039,0.0222778,0.00595093,0.00869751,0.0050354
1187,0.0151062,0.0370789,0.0273132,0.00976562,-0.00747681,0.00930786,0.0234985,-0.00213623,-0.00762939
1187,-0.0144958,0.0723267,0.0227356,0.0117493,0.00213623,-0.00289917,-0.012207,-0.00518799,-0.0512695
1187,-0.00473022,0.0572205,0.00595093,-0.020752,-0.0126648,0.00106812,0.0213623,0.0108337,-0.0114441
1187,0.0109863,0.0480652,0.00686646,0.00946045,0.00488281,0.00335693,0.0184631,0.0349426,-0.0128174
1187,0.0141907,0.0535583,0.0285339,-0.0161743,-0.0144958,-0.00167847,-0.0393677,0.0465393,-0.00228882
1188,0.00930786,0.0291443,0.0125122,-0.000305176,0.0141907,-0.00213623,-0.0227356,0.0314331,0.01297
1188,-0.00152588,-0.00137329,0.00549316,0.0141907,0.00305176,-0.00305176,-0.0404358,0.0154114,0.00793457
1188,-0.0187683,-0.0248718,0.0265503,0.00274658,0.0062561,0.00869751,-0.0575256,-0.0119019,0.000152588
1188,0.000762939,-0.0921631,0.0062561,0.00976562,0.0308228,0.00701904,-0.0198364,0.00747681,0.00671387
1188,-0.0088501,-0.111542,0.0270081,0.0152588,0.0274658,0.0088501,-0.0256348,0.0131226,0.00457764
1188,0.0166321,-0.199432,0.0201416,0.0125122,0.019989,0.0125122,0.00686646,0.0382996,0.0247192
1188,0.00427246,-0.483398,0.010376,0.0222778,0.0050354,0.0123596,0.0613403,0.0184631,0.0151062
1188,0.0131226,-0.453186,0.0387573,0.00152588,0.0193787,0.00427246,0.0704956,-0.00946045,-0.0141907
1188,-0.000305176,-0.214539,0.0341797,0.00289917,0.0787354,0.0106812,0.0874329,0.0178528,0.0088501
1188,0.00427246,0.0993347,0.00839233,0.019989,0.0840759,0.0132751,0.0408936,0.0216675,0.00656128
1189,0.00442505,0.412598,-0.017395,-0.0137329,0.0434875,0.0141907,0.0294495,0.0137329,0.0189209
1189,-0.0231934,0.514374,-0.00335693,0.00778198,-0.0138855,-0.0038147,0.0579834,0.0474548,-0.00808716
1189,-0.00671387,0.536804,0.0154114,0.0105286,0.0448608,-0.00518799,0.0405884,0.00915527,-0.0256348
1189,0.00289917,0.421143,-0.00244141,-0.00228882,0.112,-0.0143433,0.0497437,0.00900269,0.00869751
1189,-0.00167847,0.232391,0.0189209,0.00793457,0.0820923,-0.00640869,0.0137329,-0.00991821,-0.0386047
1189,0.0115967,0.0875854,0.035553,0.00717163,0.0524902,0.0132751,-0.0154114,-0.0151062,-0.0154114
1189,0.0302124,-0.000915527,0.0227356,-0.00167847,0.0468445,-0.00671387,0.0238037,-0.0312805,0.0114441
1189,0.0354004,-0.0392151,0.0386047,-0.00854492,0.0286865,0.0120544,-0.0291443,-0.00717163,-0.0273132
1189,0.0276184,-0.045166,0.0297546,0.0126648,-0.0990295,0.000610352,-0.0231934,-0.0183105,0.0131226
1189,0.0158691,-0.0576782,0.0259399,0.0401306,-0.0942993,0.00701904,-0.0341797,0.0119019,0.0227356
1190,0.00656128,-0.0172424,-0.0271606,0.0126648,-0.00305176,-0.00335693,-0.00228882,-0.0157166,0.0387573
1190,0.0270081,-0.170746,-0.0247192,0.01297,0.0131226,0.0115967,-0.010376,0.0265503,0.0515747
1190,0.00473022,-0.294952,-0.00778198,0.020752,0.000305176,0.0448608,-0.0238037,0.0357056,0.0138855
1190,0.018158,-0.15564,-0.00595093,0.0234985,0.00228882,0.015564,-0.00610352,0.0219727,0.0535583
1190,0.0318909,0.0144958,-0.0144958,0.019989,0.0370789,0.00686646,0.0167847,-0.00686646,0.0480652
1190,0.00473022,0.162201,-0.00854492,0.0263977,0.0254822,0.0227356,-0.0465393,-0.0210571,0.0169373
1190,0.0289917,0.15274,-0.0201416,0.0140381,0.0674438,-0.00488281,0.00762939,-0.020752,0.0346375
1190,-0.0161743,0.0845337,-0.00946045,-0.00289917,0.0762939,-0.000762939,-0.0128174,-0.0187683,-0.00228882
1190,-0.0114441,-0.0222778,-0.0138855,-0.0012207,0.0640869,0.00854492,-0.0585938,-0.0114441,0.0192261
1190,0.0212097,-0.0408936,-0.00869751,-0.00457764,-0.00854492,-0.00839233,0.00671387,0.00274658,0.0308228
1191,-0.000762939,-0.00808716,0.0233459,0.0115967,-0.0143433,-0.00213623,-0.027771,-0.00427246,-0.00335693
1191,0.00411987,0.0640869,0.012207,-0.00701904,0.0128174,-0.00427246,-0.0161743,-0.0183105,0.0410461
1191,-0.0012207,0.0839233,0.00274658,0.00793457,0.0120544,0.000152588,-0.0012207,0.00106812,0.0119019
1191,0.0050354,0.109558,0.00366211,0.0114441,-0.00747681,0.032196,0.115051,0.00167847,0.0247192
1191,0.00320435,0.119171,0.00732422,0.019989,0.0227356,0.00595093,0.105591,0.0228882,0.00198364
1191,0.0183105,0.0749207,0.0358582,0.0270081,-0.00900269,0.0166321,0.0488281,-0.00411987,-0.0169373
1191,0.027771,0.0317383,0.042572,0.0169373,-0.0100708,-0.00671387,0.0254822,-0.00335693,-0.00686646
1191,0.0202942,-0.0161743,0.0192261,0.0149536,0.0436401,-0.00732422,0.0308228,0.0123596,0.0282288
1191,-0.0227356,-0.0515747,0.0366211,0.0209045,0.0540161,0.00991821,-0.0109863,0.00152588,-0.00518799
1191,-0.00595093,-0.0553894,0.0462341,-0.000610352,0.057373,-0.00457764,0.0115967,-0.0184631,0.00854492
1192,0.0062561,-0.0840759,0.0180054,-0.000152588,0.0469971,-0.0190735,0.0279236,0.0257874,-0.00808716
1192,-0.00183105,-0.0645447,0.017395,-0.0146484,0.0616455,-0.0115967,-0.00137329,0.0242615,-0.0120544
1192,0.0340271,-0.0968933,0.0270081,0.0152588,0.124207,-0.0231934,0.012207,0.0257874,0.0151062
1192,-0.00717163,-0.0743103,0.0213623,0.0105286,0.091095,-0.0195312,-0.0364685,0.0405884,0.0192261
1192,0.00274658,-0.0611877,0.0187683,0.0100708,0.0386047,0.0126648,-0.0239563,0.0143433,0.0639343
1192,0.00747681,-0.0517273,0.0167847,0.015564,-0.00427246,-0.0224304,0.0190735,-0.00457764,0.0657654
1192,-0.00137329,-0.0193787,0.0444031,-0.0201416,-0.0164795,0.00335693,-0.00762939,0.0300598,0.0367737
1192,0.0222778,0.022583,0.0112915,0.00656128,-0.164032,0.00579834,-0.000610352,0.019989,0.0453186
1192,0.0314331,0.0126648,-0.014801,0.0146484,-0.32547,0.0180054,0.0158691,0.00350952,0.0222778
1192,0.0428772,0.0268555,-0.0146484,0.0140381,-0.112152,0.014801,-0.0267029,0.00488281,0.0152588
1193,0.0233459,0.019989,-0.0134277,0.00152588,0.0273132,0.0166321,-0.0480652,0.0242615,0.00213623
1193,-0.018158,-0.00717163,-0.0146484,0.0175476,0.0697327,0.0201416,-0.109863,0.00411987,-0.0144958
1193,0.00808716,-0.0997925,0.014801,0.00473022,0.04776,0.00900269,-0.0946045,-0.00442505,0.00213623
1193,0.0186157,-0.244904,0.0296021,0.0210571,0.0570679,-0.0106812,-0.0543213,0.00534058,0.00259399
1193,-0.00610352,-0.259705,0.0357056,0.00228882,0.0389099,0.01297,-0.0695801,-0.0354004,-0.0062561
1193,-0.00595093,-0.215302,0.0376892,-0.000457764,-0.00961304,-0.00732422,0.0163269,0.00305176,0.0311279
1193,-0.0273132,-0.0810242,0.0230408,0.0100708,-0.0485229,0.015564,0.138092,0.00656128,-0.00366211
1193,-0.0106812,0.0317383,0.0120544,-0.00915527,-0.0733948,0.0119019,0.123444,0.00762939,-0.00717163
1193,0.0202942,0.127106,0.0109863,-0.010376,-0.0617981,0.00259399,0.0878906,0.00869751,-0.0131226
1193,0.0202942,0.16449,0.0120544,0.0192261,-0.037384,0.0134277,0.0721741,0.000762939,-0.0437927
1194,0.0369263,0.188141,0.00930786,0.00976562,-0.00213623,0.0688171,0.0473022,0.0305176,-0.0256348
1194,0.0239563,0.166779,0.00869751,0.0245667,0.0119019,0.0714111,0.0572205,0.0262451,0.0115967
1194,0.0234985,0.170593,-0.0109863,0.0157166,0.0230408,0.0671387,0.0392151,0.0157166,-0.0160217
1194,-0.00717163,0.0602722,-0.0193787,0.0282288,0.0335693,-0.00579834,0.0617981,0.000610352,0.0231934
1194,-0.0062561,-0.0195312,-0.0288391,0.0283813,0.111694,-0.0587463,0.0617981,0.0280762,-0.000152588
1194,0.0128174,-0.261078,-0.000610352,0.00793457,0.0796509,-0.00869751,0.0410461,0.0128174,0.0111389
1194,0.0123596,-0.4245,-0.0221252,0.0135803,0.0468445,-0.000762939,0.0549316,0.0158691,0.0372314
1194,0.00518799,-0.266571,-0.00167847,-0.000152588,0.00823975,-0.00656128,0.0184631,0.0186157,0.0154114
1194,0.00900269,0.0289917,-0.0196838,-0.0115967,0.0363159,-0.000152588,-0.057373,0.00869751,0.0387573
1194,0.00167847,0.311737,-0.0494385,-0.00274658,0.0411987,0.00274658,-0.0584412,-0.00732422,0.00488281
1195,0.00213623,0.527496,-0.0114441,-0.0123596,0.09552,0.0088501,-0.0999451,-0.0170898,-0.0239563
1195,0.020752,0.51239,0.00183105,-0.0196838,0.0834656,0.00167847,-0.0939941,-0.00274658,-0.0143433
1195,0.0292969,0.327301,0.0141907,0.00305176,0.0999451,0.0154114,-0.176392,0.0152588,-0.027771
1195,0.00686646,-0.0856018,0.00656128,-0.0180054,0.0175476,0.0154114,-0.19989,0.00289917,-0.000152588
1195,0.0135803,-0.279541,0.0260925,-0.000457764,-0.0765991,0.00335693,-0.149078,0.0231934,0.0152588
1195,0.00274658,-0.177307,0.0386047,0.0106812,-0.0819397,0.0282288,-0.139008,0.00335693,0.0228882
1195,-0.00488281,-0.0175476,0.0195312,0.0233459,-0.04776,0.00213623,0.0816345,-0.0149536,0.0466919
1195,0.0050354,0.149536,0.0144958,0.032959,0.0378418,0.0137329,0.227051,-0.0125122,0.0250244
1195,-0.0248718,0.184937,0.000457764,0.00854492,0.071106,0.00854492,0.209503,-0.0338745,0.0259399
1195,-0.0128174,0.0730896,0.00427246,0.0132751,0.098877,0.0154114,0.246735,-0.0337219,0.0517273
1196,0.0125122,-0.0511169,0.0288391,0.0231934,-0.106201,0.0062561,0.158844,-0.00244141,0.0123596
1196,0.0305176,-0.256653,0.039978,-0.0134277,-0.125732,0.0109863,0.101166,-0.000610352,0.0144958
1196,0.070343,-0.573578,0.0178528,-0.00427246,-0.0157166,-0.0088501,0.0984192,0.0167847,0.00808716
1196,0.0601196,-0.585022,0.0218201,-0.00228882,0.00869751,0.0105286,0.038147,-0.000457764,0.00579834
1196,0.042572,-0.223083,0.0230408,-0.00427246,-0.0285339,0.000610352,0.0236511,0.00839233,0.0302124
1196,0.00549316,0.1828,0.0285339,0.0201416,-0.0534058,-0.00274658,-0.0260925,0.0714111,-0.0196838
1196,0.0436401,0.509644,0.0158691,-0.00228882,-0.0559998,0.0297546,-0.0579834,0.0650024,0.0436401
1196,0.0358582,0.703125,0.0352478,-0.00305176,-0.0315857,-0.00152588,-0.0592041,0.0740051,0.0184631
1196,0.0161743,0.681915,0.0502014,0.014801,0.025177,0.00900269,-0.0367737,0.0810242,0.0323486
1196,0.0167847,0.516663,0.0267029,0.0175476,0.0585938,0.0164795,-0.106506,0.0764465,0.0337219
1197,0.00915527,0.30899,0.0657654,-0.000610352,0.106049,0.00366211,-0.10025,0.0682068,0.0520325
1197,0.0114441,0.103149,0.0578308,0.00350952,0.08255,0.0115967,-0.085907,0.0244141,0.010376
1197,0.0152588,-0.0880432,0.0846863,0.00610352,0.0402832,0.00198364,0.0494385,-0.0187683,0.0462341
1197,0.0125122,-0.224762,0.0340271,0.00854492,-0.0563049,0.00274658,-0.0559998,-0.0326538,0.020752
1197,-0.0106812,-0.221558,-0.0184631,-0.0062561,-0.0769043,0.0265503,-0.0953674,-0.0483704,0.0331116
1197,0.00305176,-0.171051,-0.00778198,0.0012207,0.174408,0.00289917,0.0112915,-0.0396729,-0.00366211
1197,-0.00488281,-0.0727844,-0.0195312,-0.00823975,0.22171,0.00991821,0.0926208,-0.0358582,-0.0390625
1197,-0.00778198,0.00564575,-0.0263977,0.0108337,0.189362,0.00442505,0.0959778,-0.0372314,-0.0413513
1197,-0.0141907,0.0326538,-0.0146484,0.0387573,0.109863,-0.00137329,0.138855,-0.0178528,-0.027771
1197,-0.0180054,-0.00610352,0.0195312,0.0167847,0.03479,-0.00671387,0.108795,-0.0331116,-0.0387573
1198,0.0372314,-0.0480652,-0.00305176,0.000457764,-0.26062,0.00854492,0.0801086,0.0115967,-0.0205994
1198,0.00915527,-0.11673,0.00167847,0.0167847,-0.135498,0.0128174,0.000457764,-0.0227356,-0.0386047
1198,0.0291443,-0.0914001,0.0285339,-0.00656128,-0.0787354,0.00305176,-0.020752,-0.0138855,-0.00976562
1198,0.014801,-0.163116,0.0105286,0.0212097,0.0306702,0.00793457,-0.00473022,-0.015564,0.00976562
1198,0.00152588,-0.238495,-0.00534058,0.0144958,0.121613,0.018158,0.0733948,0.00167847,0.00549316
1198,0.0254822,-0.166473,-0.0204468,0.010376,0.19165,0.0132751,0.19516,0.00595093,0.0247192
1198,-0.00946045,-0.00259399,0.0257874,0.0141907,0.182953,-0.000152588,0.0994873,0.0378418,0.0350952
1198,-0.0106812,0.142822,0.0242615,0.00915527,0.0852966,0.014801,0.0428772,0.0289917,0.00930786
1198,0.0318909,0.214081,0.00564575,0.00106812,0.027771,-0.00289917,-0.0198364,0.0418091,-0.00747681
1198,-0.00595093,0.233459,0.0289917,0.014801,-0.0791931,-0.00808716,-0.0991821,0.0334167,-0.0389099
1199,-0.0282288,0.207977,0.00915527,0.000610352,-0.14267,0.0088501,-0.121002,0.0326538,-0.0112915
1199,-0.0344849,0.111542,-0.0375366,0.0245667,-0.032196,0.00411987,-0.127258,0.043335,-0.0639343
1199,-0.0360107,0.0239563,-0.00473022,0.0115967,0.0386047,0.000305176,-0.147552,0.00732422,-0.0656128
1199,-0.0146484,-0.0204468,-0.0396729,0.0169373,0.0814819,-0.00534058,-0.124359,0.014801,-0.0289917
1199,0.00854492,-0.042572,-0.0456238,0.00732422,0.0271606,0.0141907,-0.151978,0.0117493,-0.0454712
1199,0.0062561,-0.00686646,-0.0161743,0.00411987,0.0343323,0.00717163,-0.154724,-0.0138855,-0.0260925
1199,0.0138855,-0.0219727,-0.00183105,0.00152588,-0.214386,0.000457764,-0.105133,-0.0296021,-0.0112915
1199,0.00305176,-0.0259399,0.00656128,0.0111389,-0.190582,0.0230408,0.183868,-0.0444031,-0.00762939
1199,0.0361633,-0.0605774,0.00930786,-0.00335693,-0.0660706,0.0144958,0.102539,-0.022583,0.038147
1199,0.0531006,-0.0695801,-0.00808716,-0.00366211,-0.000915527,0.00946045,0.0177002,0.0151062,0.0158691
1200,0.0466919,-0.0189209,0.00854492,-0.000762939,0.042572,0.0196838,-0.0978088,0.000305176,0.01297
1200,0.0624084,-0.0570679,0.0115967,-0.00274658,0.0617981,0.00747681,-0.0234985,0.0144958,0.0283813
1200,0.0309753,-0.0634766,0.0366211,0.0196838,0.0672913,-0.00976562,0.0758362,0.0332642,-0.0267029
1200,0.032959,-0.0346375,0.0157166,0.00320435,0.0376892,0.00686646,0.0930786,0.0273132,0.00717163
1200,0.0157166,-0.00915527,0.017395,0.00488281,0.117798,-0.00671387,0.0837708,0.0262451,0.0134277
1200,0.00274658,0.00152588,0.0311279,-0.0112915,0.0328064,-0.00579834,0.0918579,-0.000915527,-0.0163269
1200,0.00411987,0.0202942,0.0202942,-0.0115967,-0.0552368,0.0038147,0.0669861,-0.0131226,0.0604248
1200,0.0218201,-0.0143433,0.0331116,0.000457764,-0.0117493,0.0117493,0.01297,0.00274658,0.0369263
1200,0.0382996,0.0012207,0.0215149,0.00213623,-0.0964355,0.0166321,0.032196,-0.0166321,0.0244141
1200,0.0341797,0.0112915,0.00457764,0.00900269,0.00579834,0.00244141,0.135498,0.0202942,0.0747681
1201,-0.0038147,-0.00274658,0.0202942,0.0367737,0.0845337,0.00442505,0.0270081,0.0175476,0.0576782
1201,0.0180054,-0.0144958,0.00518799,0.00671387,0.0640869,0.00350952,0.038147,0.0300598,0.06073
1201,0.0366211,-0.0636292,-0.018158,0.00366211,-0.19577,0.0183105,0.0613403,0.0134277,0.0717163
1201,0.0228882,-0.0761414,0.00579834,0.0120544,-0.135651,0.0143433,0.0268555,-0.00167847,0.0515747
1201,0.0238037,-0.0267029,0.0111389,-0.0151062,0.0315857,0.00732422,0.0813293,-0.00839233,0.0563049
1201,-0.00793457,0.00808716,0.00915527,-0.00518799,-0.0512695,0,0.0559998,-0.0221252,0.0421143
1201,-0.0291443,0.0660706,0.0152588,-0.0119019,-0.0898743,-0.00915527,0.0198364,0.00671387,0.0344849
1201,-0.0190735,0.104828,0.0244141,-0.00823975,-0.104218,-0.00640869,0.0549316,0.0253296,0.038147
1201,-0.0088501,0.0750732,0.00778198,0.00549316,-0.0820923,-0.00976562,-0.0297546,0.0236511,0.00442505
1201,-0.00961304,0.110779,0.0349426,0.0149536,-0.0648499,0.000457764,-0.0138855,0.010376,-0.0125122
1202,0.0134277,0.0639343,0.00854492,0.0358582,-0.0334167,-0.00747681,-0.0183105,0.018158,-0.00366211
1202,0.000457764,0.0180054,0.0273132,0.043335,0.0160217,0.000152588,-0.0216675,0.0292969,-0.0137329
1202,0.0283813,0.0177002,0.0219727,0.032959,0.0617981,0.0119019,0.00686646,0.00686646,0.00396729
1202,0.0231934,-0.00457764,0.0157166,0.0335693,0.0411987,0.020752,0.00366211,0.0128174,-0.00411987
1202,-0.00701904,0.0154114,0.014801,0.00305176,0.00137329,0.0117493,-0.0680542,-0.00793457,-0.00991821
1202,0.0102234,0.0250244,-0.0012207,0.00183105,0.0170898,0.0233459,-0.0521851,0.0117493,0.0308228
1202,-0.0228882,0.0212097,0.0236511,0.0222778,0.00656128,0.0100708,-0.0758362,0.0144958,-0.0265503
1202,0.0268555,-0.00137329,0.0154114,-0.00198364,0.0872803,0.0100708,-0.0682068,-0.0213623,0.0189209
1202,-0.0274658,-0.090332,0.00854492,0.00411987,0.150909,-0.00137329,-0.0469971,0.0244141,0.0175476
1202,-0.00991821,-0.190735,0.0180054,-0.00473022,0.163727,-0.00244141,-0.0695801,0.00778198,0.0131226
1203,-0.0195312,-0.265808,0.0109863,-0.0126648,0.219269,-0.0205994,-0.0448608,0.0198364,0.0473022
1203,0.00991821,-0.296326,0.0238037,-0.0166321,0.0814819,-0.017395,-0.0634766,0.0483704,0.00198364
1203,0.0126648,-0.205383,0.0389099,-0.0105286,-0.266571,0.0050354,-0.0497437,0.0389099,-0.0274658
1203,0.0614929,-0.0505066,0.0395203,-0.000152588,-0.133514,-0.00457764,-0.0257874,0.0250244,-0.000152588
1203,0.00457764,0.101013,0.0440979,-0.00259399,-0.0367737,0.0183105,-0.0309753,0.0410461,-0.0445557
1203,0.0152588,0.0839233,0.0178528,-0.0177002,0.0138855,0.0283813,-0.0209045,0.0151062,0.0126648
1203,0.0352478,-0.145569,-0.00198364,-0.00640869,0.0250244,0.0405884,0.0283813,0.0216675,0.0215149
1203,0.0111389,-0.475464,-0.0137329,-0.0114441,-0.0613403,0.00793457,-0.0259399,0.039978,0.00411987
1203,0.0138855,-0.372009,-0.0175476,0.0288391,-0.0440979,0.00656128,-0.0363159,-0.00152588,0.0535583
1203,0.0134277,-0.0466919,-0.0209045,0.0485229,0.0146484,-0.0244141,-0.0254822,0.0154114,0.0444031
1204,0.00595093,0.37262,-0.00396729,0.030365,0.00244141,0.019989,0.0404358,0.0177002,0.0549316
1204,0.00289917,0.610199,0.00152588,0.0320435,0.00640869,0.00518799,0.0335693,0.0271606,0.0361633
1204,0.0209045,0.586243,-0.00274658,0.00427246,0.00839233,0.00473022,-0.00335693,0.0283813,0.0253296
1204,0.0267029,0.41687,0.019989,0.000610352,0.017395,0.0062561,0.0538635,0.022583,0.0617981
1204,-0.0175476,0.22995,0.0267029,0.00259399,0.0166321,-0.0154114,0.0823975,0.0364685,-0.00610352
1204,0.00137329,0.153961,0.0152588,-0.000152588,0.0471497,0.0120544,0.0582886,0.00930786,-0.0366211
1204,0.00991821,0.0846863,0.00793457,0.00747681,0.0323486,-0.00152588,0.0787354,-0.00411987,-0.0192261
1204,-0.0038147,0.112152,0.00915527,-0.015564,0.0294495,0.0245667,0.045166,-0.0123596,-0.0764465
1204,0.00350952,0.0831604,0.0117493,-0.0146484,0.0253296,0.0154114,0.0117493,-0.0454712,-0.0421143
1204,0.00976562,-0.00579834,0.0221252,0.0187683,0.062561,-0.00991821,0.00152588,0.00854492,-0.0421143
1205,0.00900269,-0.0566101,0.0354004,0.012207,0.0216675,0.00793457,-0.00823975,-0.00564575,-0.0588989
1205,0.0372314,-0.0447083,-0.0112915,0.0190735,0.00778198,0.00518799,0.0183105,0.0401306,-0.0140381
1205,0.0375366,-0.0456238,0.0112915,0.0357056,0.0262451,0.0125122,-0.000610352,0.0297546,-0.0378418
1205,-0.00137329,-0.00991821,0.0210571,0.0289917,0.0308228,0.00991821,0.00564575,0.00518799,-0.0146484
1205,-0.0012207,0.0392151,0.00808716,0.0164795,0.019989,0.0279236,0.0328064,0.00167847,0.0224304
1205,-0.00610352,0.0473022,0.0111389,0.0149536,0.0163269,0.010376,0.0144958,-0.0389099,0.00564575
1205,-0.0202942,0.0187683,0.0257874,-0.025177,0.0146484,-0.00228882,-0.00305176,-0.0305176,0.0367737
1205,-0.0062561,-0.0141907,0.00747681,0.0132751,0.0344849,-0.00152588,0.00259399,-0.0193787,0.00198364
1205,-0.0222778,-0.0843811,-0.00320435,-0.000915527,0.0109863,0.00732422,0.0157166,-0.0242615,0.00610352
1205,-0.00549316,-0.305481,-0.00305176,0.00411987,0.00610352,-0.00442505,0.0898743,0.00534058,0.0376892
1206,0.00793457,-0.271759,-0.0149536,0.00747681,0.0154114,-0.00259399,0.0395203,0.0180054,-0.0254822
1206,0.0466919,-0.0764465,0.000762939,0.0227356,-0.0088501,0.0263977,-0.0247192,-0.00259399,0.0282288
1206,0.0152588,0.0959778,0.00396729,0.018158,-0.000915527,-0.00717163,-0.0553894,0.00518799,0.0323486
1206,0.0221252,0.22522,0.0689697,0.01297,0.0222778,0.00671387,-0.0500488,0.0245667,0.00366211
1206,0.0166321,0.213623,0.0492859,0.0270081,0.022583,0.00595093,-0.0579834,0.00701904,0.0424194
1206,0.00991821,0.126495,0.0416565,0.00244141,0.0588989,0.0183105,-0.0108337,0.0434875,0.0456238
1206,0.00457764,0.059967,0.043335,-0.014801,0.0747681,0.00854492,-0.0123596,0.00930786,-0.00900269
1206,0.0170898,0.00808716,0.0337219,-0.0186157,0.0978088,0.000915527,0.0369263,0.0260925,0.00259399
1206,0.00305176,-0.0390625,0.0601196,0.0169373,0.0848389,0.00991821,0.0663757,0.0485229,-0.0259399
1206,-0.0038147,-0.0312805,0.0485229,-0.0149536,0.0830078,-0.00823975,0.0520325,0.0440979,0.000915527
1207,0.00198364,-0.0457764,0.0038147,0.00671387,0.0288391,0.00747681,0.0723267,0.0495911,0.00457764
1207,0.00930786,-0.0204468,-0.00335693,0.00244141,-0.0823975,0.00228882,0.0344849,0.0299072,-0.0323486
1207,0.0239563,0.00808716,-0.00854492,-0.00350952,-0.129852,-0.00579834,0.00228882,0.0224304,0.00198364
1207,0.0221252,0.0317383,-0.0158691,0.00854492,-0.0497437,0.00305176,0.0178528,0.0514221,0.00930786
1207,0.0212097,0.03479,0.00579834,0.0112915,-0.0190735,0.00854492,-0.0468445,0.0062561,0.0205994
1207,0.0344849,-0.0106812,-0.00167847,0.00396729,0.0289917,-0.00152588,-0.0158691,-0.0219727,0.0280762
1207,0.0256348,-0.0317383,0.00549316,0.0131226,0.0341797,0.00152588,-0.0453186,0.0050354,0.0413513
1207,0.0410461,-0.0369263,0.00991821,0.0111389,0.00198364,0.0186157,-0.0431824,-0.00442505,0.0495911
1207,0.0128174,-0.0830078,-0.0187683,0.0141907,-0.000915527,0.00183105,-0.012207,0.018158,0.0674438
1207,0.0296021,-0.196381,-0.00213623,-0.00213623,-0.00106812,0.0119019,0.0346375,0.0515747,0.0382996
1208,0.0143433,-0.240784,-0.0109863,-0.00183105,0.0596619,0.00930786,0.00198364,0.0483704,0.0357056
1208,-0.00762939,-0.267029,0.00167847,0.0271606,0.143433,0.00442505,-0.0276184,0.0538635,0.0302124
1208,-0.0050354,-0.208435,0.00900269,0.0157166,0.100555,0.0132751,-0.0848389,0.0267029,-0.00823975
1208,0.0253296,-0.102692,-0.0175476,0.0161743,0.108337,-0.00137329,0.00823975,0.0160217,0.00350952
1208,0.0282288,-0.0527954,0.00106812,0.0280762,0.045929,0.00808716,0.0793457,-0.00732422,-0.0341797
1208,0.0215149,0.0611877,0.0164795,0.00610352,0.0308228,-0.00198364,0.0732422,-0.0648499,-0.0219727
1208,0.0233459,0.187683,-0.0119019,0.00579834,-0.202484,-0.00549316,0.0839233,-0.0592041,-0.00518799
1208,0.0234985,0.235901,-0.00976562,0.012207,-0.208588,0.0221252,0.0634766,-0.0610352,-0.0263977
1208,0.0158691,0.235291,0.0219727,0.0132751,-0.0552368,0.0100708,0.0830078,-0.070343,0.0300598
1208,-0.0163269,0.218201,0.0340271,0.00335693,-0.00900269,0.0161743,0.102234,-0.0382996,-0.00488281
1209,-0.0180054,0.229645,0.0184631,-0.00396729,0.00595093,0.0247192,-0.0088501,-0.00549316,-0.00106812
1209,-0.0149536,0.173187,0.0267029,0.00823975,0.0714111,-0.00564575,-0.0419617,0.00350952,0.0230408
1209,-0.0326538,0.109558,0.0405884,0.0012207,0.0898743,0.00213623,-0.0175476,0.00762939,-0.0227356
1209,-0.0457764,0.0611877,0.0297546,-0.00900269,0.111847,0.0146484,0.0228882,-0.00823975,0.00411987
1209,-0.0302124,-0.0151062,0.0135803,-0.00518799,0.164948,0.00869751,0.020752,0.0268555,0.0146484
1209,-0.0114441,-0.0906372,0.0396729,0.00411987,0.0535583,0.00213623,-0.00793457,0.0460815,-0.00305176
1209,0.00717163,-0.113983,0.0283813,-0.0050354,-0.1474,0.0222778,0.0257874,0.0158691,0.0117493
1209,0.0288391,-0.0952148,-0.00167847,0.0337219,-0.179291,-0.00152588,-0.0115967,0.0167847,-0.00106812
1209,0.0546265,-0.0143433,0.0234985,0.0204468,-0.133209,0.00274658,-0.0231934,0.0012207,-0.00579834
1209,0.039978,0.0549316,0.00915527,0.0180054,-0.0541687,0.00259399,-0.032959,-0.00656128,0.0289917
1210,0.0480652,0.098877,0.00946045,0.0140381,-0.0143433,-0.00778198,-0.0628662,0.0143433,0.00320435
1210,0.0396729,0.129089,0.0209045,-0.00366211,-0.0163269,0.00564575,-0.105591,0.0265503,0.00442505
1210,0.0270081,-0.067749,0.0265503,0.00244141,-0.0434875,-0.00595093,-0.0778198,0.065918,-0.00946045
1210,0.012207,-0.396423,0.0309753,0.000610352,-0.0390625,0.0143433,-0.121918,0.0610352,-0.0172424
1210,0.0166321,-0.412292,0.0152588,0.0259399,-0.0178528,0.00534058,-0.0743103,0.0683594,0.0228882
1210,-0.0102234,-0.204926,0.0448608,0.0317383,0.000762939,0.000457764,-0.101776,0.0448608,0.0115967
1210,-0.0274658,0.0387573,0.0137329,0.0143433,0.0866699,0.0106812,-0.107422,-0.0250244,-0.00274658
1210,0.000152588,0.305328,0.0262451,0.0253296,0.0592041,0.00976562,-0.0521851,-0.0570679,0.0160217
1210,0.0123596,0.38147,-0.00198364,0.0154114,0.0296021,0.00244141,-0.0924683,-0.0808716,-0.0108337
1210,0.0567627,0.264587,-0.00106812,-0.00335693,0.0953674,-0.00976562,0.154572,-0.0502014,0.0265503
1211,0.0350952,0.10849,0.00274658,0.00289917,0.13855,0.018158,0.123749,-0.0317383,0.0247192
1211,0.00549316,-0.0741577,0.000762939,0.00106812,0.135193,0.00396729,0.093689,-0.00564575,0.0123596
1211,-0.00656128,-0.487823,0.0114441,0.0102234,0.12146,0.00167847,0.000610352,-0.000762939,0.0288391
1211,-0.0108337,-0.671997,0.00869751,0.00839233,0.136261,0.0012207,-0.114746,0.0312805,0.00946045
1211,-0.0267029,-0.605927,0.0062561,0.000610352,-0.125122,-0.00839233,-0.0675964,0.0198364,0.068512
1211,-0.03479,-0.394135,0.0149536,0.0144958,-0.252075,-0.00106812,0.0189209,0.0169373,0.0408936
1211,-0.0167847,0.132141,-0.000610352,-0.00900269,-0.108948,0.00793457,-0.0300598,0.0340271,0.0314331
1211,0.0256348,0.499115,-0.0256348,0.025177,-0.0248718,0.00579834,-0.063324,0.0158691,0.0445557
1211,0.00762939,0.577545,0.00747681,0.0135803,0.0660706,-0.0038147,-0.065918,0.0201416,0.0126648
1211,0.0184631,0.545959,0.0123596,-0.0131226,0.10376,0.00946045,0.0505066,-0.00488281,0.000915527
1212,0.0279236,0.369873,0.0317383,0.0166321,0.0892639,0.0106812,0.220947,-0.00656128,0.00305176
1212,0.00198364,0.208588,0.00564575,0.00244141,0.0846863,0.00320435,0.204468,-0.0132751,-0.0169373
1212,0.01297,0.123291,0.0318909,0.0126648,0.0621033,0.0231934,0.141907,-0.0218201,0.0376892
1212,-0.00350952,0.0419617,0.0439453,0.0111389,-0.0106812,-0.0134277,0.0657654,-0.0212097,0.00198364
1212,-0.0157166,0.0289917,0.059967,0.00350952,-0.0468445,0.0233459,0.0405884,-0.025177,-0.00869751
1212,0.0141907,0.0572205,0.00610352,-0.0141907,-0.0938416,0.0163269,0.0340271,0.0062561,0.00610352
1212,0.010376,-0.0328064,0.00350952,0.00488281,-0.0849915,0.0166321,-0.0331116,0.00808716,-0.0300598
1212,-0.00579834,-0.0674438,0.0271606,0.0143433,-0.0436401,-0.010376,0.0265503,0.030365,-0.0279236
1212,-0.00946045,-0.0793457,0.00457764,-0.00732422,0.0210571,-0.00778198,0.0462341,0.0485229,-0.0640869
1212,-0.0151062,-0.0671387,0.00442505,0.00457764,0.0190735,0.0294495,0.0328064,0.0105286,-0.0852966
1213,0.0184631,0.0151062,-0.00549316,0.00686646,-0.0262451,0,0.0645447,0.0401306,-0.0596619
1213,0.0462341,0.100403,-0.0088501,0.0263977,-0.00579834,0.00442505,0.0202942,0.0411987,-0.0866699
1213,0.0495911,0.166321,-0.00701904,0.0247192,0.06073,0.0108337,-0.00686646,0.0250244,-0.0587463
1213,0.0489807,0.20752,0.0222778,0.0164795,0.110931,-0.00198364,0.0518799,0.0187683,-0.00427246
1213,0.027771,0.188599,0.0238037,0.0157166,0.135803,0.000152588,0.0709534,0.00564575,-0.0106812
1213,0.00946045,0.126038,0.0271606,0.0106812,0.00396729,0.0202942,-0.0189209,0.00335693,0.0679016
1213,0.0115967,0.0190735,0.0221252,0.0125122,-0.0650024,0.0105286,-0.018158,0.00762939,0.0402832
1213,0.0231934,-0.0088501,0.0312805,-0.00228882,-0.0828552,0.00427246,-0.000305176,0.0260925,0.0453186
1213,0.00823975,0.0175476,0.00213623,-0.00717163,-0.186005,0.0012207,-0.0216675,0.0117493,0.0854492
1213,-0.0234985,-0.0050354,0.0151062,0.018158,-0.126495,0.00320435,-0.00915527,0.00793457,0.0604248
1214,-0.0357056,-0.0680542,0.00213623,-0.00244141,0.0642395,-0.0012207,0.00732422,0.000610352,0.0506592
1214,-0.0436401,-0.106354,-0.0222778,0.01297,0.120544,0.0062561,0.00778198,0.0378418,0.0154114
1214,-0.0221252,-0.0787354,-0.042572,0.00427246,0.0939941,0.00564575,0.117188,-0.000152588,0.000457764
1214,-0.00793457,-0.0387573,-0.0115967,0.0218201,0.0430298,-0.00549316,0.0842285,0.0105286,0.0247192
1214,-0.00961304,-0.012207,0.0138855,0.0288391,-0.00534058,-0.00106812,-0.0247192,0.0657654,-0.0062561
1214,-0.0132751,-0.111237,0.0286865,0.0228882,0.0205994,0.0115967,-0.0421143,0.0730896,0.0172424
1214,-0.00396729,-0.299988,0.0421143,0.0228882,0.111694,-0.00457764,-0.0204468,0.0888062,-0.0038147
1214,0.0218201,-0.220337,0.0514221,0.0112915,0.0720215,0.0167847,-0.0669861,0.088501,-0.00167847
1214,0.0553894,-0.050354,0.0357056,0.00564575,0.0596619,0.0233459,0.0166321,0.0532532,0.0317383
1214,0.0727844,0.124817,0.0286865,0.0166321,0.0880432,0.0215149,0.0750732,-0.0106812,0.0627136
1215,0.0827026,0.215759,0.0462341,0.0158691,0.000915527,0.00213623,0.00991821,-0.0489807,0.012207
1215,0.0552368,0.179749,0.0382996,-0.0038147,-0.0242615,0.0120544,-0.0151062,-0.045929,0.0547791
1215,0.0401306,0.0726318,0.0369263,0.0143433,0.00823975,0.00869751,-0.0396729,-0.0445557,0.0668335
1215,0.0366211,0.0268555,0.032959,-0.0120544,0.0238037,0.0282288,0.0230408,-0.015564,0.0363159
1215,0.00289917,-0.03479,0.0135803,-0.00488281,0.0141907,0.00778198,0.0946045,0.0234985,0.0363159
1215,0.0149536,-0.0909424,0.0305176,0.00930786,-0.0216675,0.0132751,0.0709534,0.0271606,-0.0038147
1215,-0.00610352,-0.0996399,0.0283813,-0.0151062,0.000305176,-0.0143433,0.0726318,0.0292969,0.014801
1215,0.0172424,-0.0656128,0.0236511,0.0012207,-0.0436401,-0.00991821,0.00579834,-0.00488281,0.0115967
1215,0.00427246,-0.0190735,0.0267029,-0.0125122,0.0839233,0.0187683,0.0189209,-0.0257874,-0.0242615
1215,0.0390625,-0.0186157,0.0253296,-0.0106812,0.155945,0.0088501,0.0445557,-0.0405884,-0.00335693
1216,0.0210571,-0.00946045,0.0418091,0.0106812,0.139618,0.00701904,0.0285339,-0.0169373,-0.0634766
1216,0.0236511,0.00244141,0.0201416,-0.0149536,0.136566,0.0187683,0.0291443,-0.0161743,-0.0364685
1216,0.0445557,-0.0186157,0.022583,-0.00915527,-0.123291,0.0143433,-0.062561,0.0288391,-0.0216675
1216,-0.0210571,-0.00671387,0.0328064,0.0160217,-0.151825,0.000152588,-0.178986,0.0151062,-0.0253296
1216,-0.0062561,0.00839233,0.00701904,0.0260925,0.0112915,0.0454712,-0.156097,-0.0236511,0.0372314
1216,-0.0196838,-0.0163269,0.00228882,-0.0038147,0.117493,0.00808716,-0.175171,0.0108337,0.0146484
1216,-0.0187683,-0.0183105,0.00564575,-0.0138855,-0.0151062,0.00488281,-0.0907898,-0.00701904,0.00686646
1216,-0.00411987,-0.0314331,-0.0267029,0.00793457,-0.0628662,-0.0509644,0.16449,-0.0088501,0.0189209
1216,-0.00701904,-0.00671387,-0.0183105,0.00747681,-0.0509644,-0.0210571,0.246887,0.01297,0.00274658
1216,0.00534058,-0.0231934,-0.0167847,-0.00350952,-0.0253296,-0.0183105,0.149078,-0.0141907,0.0582886
1217,-0.000610352,-0.0341797,-0.012207,0.0125122,-0.0558472,-0.018158,0.0610352,-0.0111389,0.0247192
1217,0.0119019,0.0457764,0.00640869,0.00427246,-0.0950623,0.00259399,-0.0241089,-0.0215149,-0.0221252
1217,0.0305176,0.0869751,-0.00152588,-0.0100708,-0.0474548,-0.017395,0.0593567,0.0158691,0.0170898
1217,0.0395203,0.0230408,-0.000305176,0.00579834,-0.0285339,0.00686646,0.0488281,0.0340271,-0.0308228
1217,0.0306702,0.0389099,0.00137329,0.0134277,0.00427246,0.0169373,-0.0222778,0.000457764,-0.0193787
1217,0.0221252,0.0106812,0.00366211,0.00289917,0.0767517,0.0119019,-0.0274658,0.0088501,0.00137329
1217,0.00289917,-0.0120544,0.0187683,0.0292969,0.108185,0.00274658,-0.042572,-0.0012207,-0.00823975
1217,-0.0202942,-0.0416565,0.0158691,0.000305176,0.0485229,0.0120544,-0.0460815,0.00900269,0.0193787
1217,-0.000305176,-0.0424194,-0.0343323,0.00259399,-0.0157166,0.000457764,0.0297546,0.0289917,0.00411987
1217,-0.0231934,0.0164795,0.00686646,0.00747681,-0.0305176,-0.00244141,0.0749207,0.0062561,-0.0120544
1218,-0.0175476,0.0236511,0.000915527,0.0108337,0.0402832,0.0219727,0.171509,-0.00686646,0.0369263
1218,-0.010376,0.0302124,0.00732422,0.0224304,0.0473022,-0.0134277,0.0956726,-0.00289917,0.00656128
1218,-0.00244141,0.0494385,0.0128174,-0.00198364,0.100555,-0.0154114,0.010376,-0.0326538,0.0666809
1218,0.0239563,0.0408936,0.0134277,-0.00183105,0.126343,0.00198364,0.0993347,-0.0244141,-0.0062561
1218,0.0193787,0.0100708,-0.00350952,0.00701904,-0.00396729,0.0158691,0.0280762,-0.00976562,0.0112915
1218,0.0331116,0.0138855,0.0109863,-0.00549316,-0.142059,-0.00640869,0.0227356,0.0152588,0.0360107
1218,-0.0224304,-0.00167847,0.00534058,0.00869751,-0.135193,0.000915527,0.0175476,0.0216675,-0.0350952
1218,0.00610352,0.00564575,0.0350952,0.035553,-0.0323486,0.0250244,0.0247192,-0.00961304,-0.0424194
1218,0.0141907,-0.0578308,-0.00244141,0.0395203,0.0521851,-0.00640869,0.0372314,0.0050354,-0.01297
1218,-0.00961304,-0.0637817,0.00717163,0.0282288,0.0709534,-0.00305176,0.0320435,0.0143433,-0.071106
1219,0.0268555,-0.0912476,-0.00640869,0.0337219,0.0935364,0.0117493,0.0141907,0.0395203,-0.0112915
1219,0.0823975,-0.186768,0.0169373,0.0242615,0.0856018,-0.00762939,0.0372314,0.0408936,-0.0144958
1219,0.0556946,-0.167694,0.020752,0.0205994,0.0805664,0.000305176,0.0149536,0.0311279,-0.0244141
1219,0.0483704,-0.115509,-0.0163269,0.0135803,0.118713,-0.00686646,0.0367737,0.0392151,0.037384
1219,0.0218201,-0.0614929,0.0276184,-0.00213623,0.00152588,0.00717163,-0.00106812,0.0315857,0.00228882
1219,-0.00762939,0.0189209,0.0210571,-0.0138855,-0.200806,0.00595093,0.00167847,0.0132751,0.0256348
1219,0.0172424,0.0672913,-0.000152588,-0.0180054,-0.190887,0.00167847,0.0378418,0.00518799,0.0483704
1219,0.00747681,0.0320435,-0.00610352,-0.000762939,-0.12146,-0.000762939,-0.00823975,-0.0160217,0.000762939
1219,0.0154114,0.0186157,0.014801,-0.00839233,-0.0538635,-0.0105286,-0.0393677,-0.0328064,0.00762939
1219,0.00961304,0.0549316,0.018158,-0.0184631,-0.00518799,0.0239563,-0.0543213,-0.00259399,0.00946045
1220,-0.00747681,0.0935364,0.0296021,-0.00427246,0.0102234,-0.00350952,-0.0857544,0.00427246,-0.00289917
1220,0.0137329,0.123749,0.0311279,-0.00793457,0.0250244,-0.0650024,-0.072937,0.0306702,0.0427246
1220,0.0231934,0.146637,0.012207,0.0178528,0.012207,-0.0517273,-0.0698853,0.0447083,0.00976562
1220,0.0320435,0.178528,-0.00518799,0.00335693,0.0177002,-0.0134277,-0.0354004,0.0415039,0.0088501
1220,0.01297,0.200348,-0.00961304,0.0227356,0.105438,0.0167847,0.0334167,0.0535583,0.00915527
1220,-0.0123596,0.135956,0.0196838,0.0291443,0.16983,0.0106812,-0.0396729,0.0062561,-0.0584412
1220,-0.00640869,0.098114,-0.0161743,0.015564,0.196533,0.0141907,-0.109253,-0.0326538,-0.0253296
1220,-0.0128174,0.0483704,0.00808716,0.0230408,0.231018,-0.00183105,-0.104675,-0.00442505,-0.0463867
1220,0.00976562,0.00167847,-0.00427246,0.000305176,-0.0343323,-0.00152588,-0.0619507,0.00457764,-0.0534058
1220,0.00930786,-0.34256,-0.00946045,0.0102234,-0.258026,-0.0102234,0.025177,0.0166321,-0.0473022
1221,-0.0157166,-0.500488,0.0140381,-0.00518799,-0.161133,-0.0160217,0.0863647,0.0300598,-0.00473022
1221,-0.00747681,-0.269012,0.00366211,0.0102234,-0.106049,-0.000762939,0.104523,0.0161743,0.0141907
1221,-0.0170898,0.0349426,-0.0169373,0.00808716,-0.0543213,0.000610352,0.144043,0.0253296,0.0088501
1221,0.0160217,0.288544,-0.00656128,0.0109863,-0.0585938,0.0497437,-0.00152588,0.043335,0.0170898
1221,0.00854492,0.390167,0.00900269,-0.00656128,-0.0637817,0.0263977,-0.0291443,0.0566101,0.063324
1221,0.0105286,0.284271,-0.00900269,0.030365,-0.0320435,0.0544739,-0.0674438,0.0131226,0.0610352
1221,0.017395,0.20462,0.0144958,0.00244141,-0.0212097,0.0445557,-0.043335,-0.0195312,0.0814819
1221,0.0279236,0.108032,0.0224304,0.042572,-0.0224304,-0.0341797,0.0497437,0.0268555,0.0769043
1221,-0.00457764,-0.0389099,0.0163269,0.027771,-0.0131226,0.0238037,0.0338745,0.00366211,0.0502014
1221,-0.00305176,-0.250702,0.0177002,0.00701904,-0.00366211,0.0372314,0.0990295,0.0100708,0.0645447
1222,0.00305176,-0.41687,-0.00549316,-0.00228882,-0.0164795,0.0114441,0.0741577,0.0230408,0.0126648
1222,-0.00778198,-0.325623,0.0253296,-0.0175476,0.0357056,-0.0160217,0.0305176,0.0117493,-0.00320435
1222,0.0170898,-0.208282,0.017395,0.0253296,0.0552368,0.00961304,0.0447083,0.0259399,0.0379944
1222,0.00320435,-0.0907898,0.0541687,0.0187683,0.0338745,0.0363159,0.000457764,0.0169373,0.00213623
1222,-0.000152588,0.0796509,0.0567627,0.00946045,0.0538635,0.0668335,-0.0270081,-0.00167847,-0.00106812
1222,-0.00198364,0.230865,0.0349426,-0.0112915,0.0463867,0.040741,-0.0062561,-0.0325012,0.0576782
1222,-0.0210571,0.2565,0.0166321,0.0131226,0.0144958,0.0653076,-0.00488281,-0.032959,0.0279236
1222,0.012207,0.310059,0.000305176,0.000762939,-0.0038147,0.0765991,0.0688171,-0.0442505,0.0247192
1222,0.0178528,0.275269,0.0062561,0.0126648,0.09552,0.0088501,0.0500488,-0.020752,0.00869751
1222,0.0361633,0.170441,0.0247192,0.0140381,0.0752258,-0.0134277,-0.0260925,-0.0257874,0.00534058
1223,0.0233459,0.112,0.0204468,0.0265503,0.125885,-0.0511169,-0.038147,-0.014801,0.0213623
1223,-0.00137329,0.0915527,0.00762939,0.00488281,0.148468,-0.00671387,-0.0112915,0.00564575,-0.0288391
1223,0.0178528,0.0971985,0.0119019,0.0132751,0.157013,0.0184631,0.0334167,0.0149536,-0.00579834
1223,0.00686646,0.0874329,0.0120544,0.00320435,-0.0462341,-0.00991821,-0.0352478,0.0195312,0.00915527
1223,-0.0216675,0.0588989,0.0280762,-0.00183105,-0.313263,-0.00564575,-0.0517273,0.00473022,-0.0210571
1223,0.000305176,-0.0117493,0.0250244,-0.0100708,-0.128784,-0.00442505,0.0413513,0.0038147,0.0302124
1223,-0.0151062,-0.0587463,0.052948,0.014801,-0.0492859,-0.00701904,-0.00946045,0.0192261,0.010376
1223,-0.0172424,-0.0305176,0.0636292,0.00167847,-0.0408936,0.00610352,-0.0985718,0.00640869,0.0302124
1223,-0.00442505,-0.0282288,0.0543213,0.00610352,-0.0354004,-0.0137329,-0.0764465,0.0436401,0.0466919
1223,-0.0152588,-0.00686646,0.0244141,0.00244141,0.00320435,0.0038147,0.0944519,0.0138855,0.0317383
1224,-0.0210571,0.0260925,-0.0161743,-0.0131226,0.0756836,-0.0141907,0.290833,-0.0231934,0.0512695
1224,0.0283813,0.0471497,-0.0234985,0.0131226,0.0415039,-0.0268555,0.210571,-0.0262451,0.0175476
1224,0.0436401,0.0088501,-0.00869751,0.0131226,0.0662231,-0.00213623,0.133362,-0.0163269,-0.00854492
1224,0.0485229,-0.0836182,-0.0306702,0.00106812,0.0996399,-0.0050354,0.13443,0.00518799,0.015564
1224,0.0280762,-0.102234,-0.0038147,0.00823975,0.101471,0.0109863,0.0683594,0.0312805,-0.0163269
1224,0.0578308,-0.0906372,-0.0109863,0.0038147,0.0790405,-0.00534058,0.0575256,0.0241089,0.0111389
1224,0.0218201,-0.0827026,0.00427246,0.00823975,0.0224304,-0.00289917,0.0616455,0.010376,0.0111389
1224,0.00198364,-0.0584412,0.00534058,0.0289917,-0.0483704,-0.00457764,-0.00183105,0.0296021,-0.0154114
1224,0.00457764,-0.149689,-0.0038147,0.0152588,-0.0553894,0.0119019,0.00274658,0.0331116,-0.0109863
1224,-0.0125122,-0.228729,0.0300598,0.00366211,-0.0320435,-0.000152588,-0.0654602,0.0415039,-0.0119019
1225,0.00778198,-0.0332642,0.0175476,-0.00778198,0.00305176,-0.00137329,-0.105133,0.0166321,-0.0132751
1225,0.0260925,0.123901,0.0134277,0.0190735,0.000610352,-0.0187683,-0.0878906,0.0111389,0.0282288
1225,0.0280762,0.220032,0.0422668,0.012207,-0.0476074,-0.00671387,-0.146484,0.00976562,0.00793457
1225,-0.00228882,0.222778,0.0291443,0.0157166,-0.0627136,0.00534058,-0.167694,-0.0279236,0.0218201
1225,0.00640869,0.123901,-0.0363159,0.0244141,-0.0590515,0.00396729,-0.0991821,-0.0190735,0.0212097
1225,0.0131226,0.0337219,-0.0146484,0.0202942,0.00427246,0.0108337,0.0810242,-0.0193787,-0.00808716
1225,0.0160217,0.00305176,0.00946045,-0.020752,0.0558472,-0.000305176,0.181274,0.0228882,0.0192261
1225,0.0189209,-0.0332642,0.00396729,0.00534058,0.0164795,0.00686646,0.111237,0.0311279,0.00411987
1225,0.0012207,-0.0268555,0.0144958,-0.0167847,-0.00442505,0.00320435,0.0268555,0.0297546,0.00579834
1225,0.0299072,-0.0660706,0.0210571,-0.0126648,0.0205994,-0.00579834,0.0375366,0.0289917,-0.00289917
1226,-0.0164795,-0.057373,0.00610352,0.0285339,0.0193787,0.0195312,-0.0314331,0.0340271,-0.0151062
1226,-0.0212097,-0.0360107,0.00198364,0.00946045,0.0317383,0.0190735,-0.0221252,0.0241089,0.030365
1226,-0.017395,-0.0305176,-0.0151062,-0.00732422,0.0869751,0.0526428,0.0469971,0.0517273,0.015564
1226,-0.0164795,-0.00244141,-0.00701904,0.00701904,0.0509644,0.0549316,0.0559998,0.0439453,0.00778198
1226,0.00854492,-0.00335693,-0.0115967,0.0190735,0.0601196,0.0317383,0.121002,0.0245667,0.0349426
1226,-0.00656128,-0.0195312,0.000457764,0.00808716,0.0662231,0.00839233,0.0419617,0.0411987,0.00320435
1226,0.00473022,-0.0140381,0.00335693,0.0154114,0.0534058,-0.0205994,-0.0273132,0.0212097,0.00640869
1226,0.0276184,-0.020752,-0.00778198,-0.00228882,0.0708008,-0.0392151,-0.0411987,-0.00152588,0.0297546
1226,0.0300598,-0.0382996,0.00320435,0.00778198,0.0389099,-0.0038147,-0.0863647,-0.0236511,-0.0109863
1226,0.0601196,-0.0463867,0.0709534,-0.0119019,0.00823975,-0.010376,-0.0740051,-0.039978,0.00961304
1227,0.0569153,-0.085144,0.0648499,-0.00701904,-0.0238037,-0.0062561,-0.0517273,-0.0292969,-0.0288391
1227,0.0422668,-0.059967,0.0724792,-0.00335693,-0.0653076,0.0062561,-0.0430298,-0.0378418,-0.0498962
1227,0.0259399,-0.0265503,0.0267029,-0.00335693,0.0415039,-0.00167847,-0.0248718,-0.0178528,-0.0186157
1227,0.0331116,-0.0215149,0.0117493,0.0178528,0.101776,-0.00213623,-0.0205994,-0.00244141,-0.0636292
1227,0.0291443,-0.0151062,0.00518799,0.0241089,0.072937,0.00137329,0.00228882,-0.00137329,-0.0657654
1227,-0.00488281,0.0204468,-0.015564,0.0341797,0.124817,-0.00167847,0.0624084,0.0183105,-0.0456238
1227,0.00610352,0.0552368,0.00839233,0.0169373,0.173035,0.0140381,0.0201416,0.00564575,-0.0817871
1227,0.0183105,0.0567627,-0.0546265,-0.0151062,-0.0283813,0.0286865,0.0128174,0.0186157,-0.0204468
1227,0.0222778,-0.00579834,-0.0447083,0.0141907,-0.0941467,0.0276184,-0.0236511,0.0196838,-0.012207
1227,0.0152588,-0.0662231,-0.0398254,0.010376,0.0166321,0.035553,-0.0462341,-0.0285339,0.038147
1228,0.0224304,-0.130463,-0.0280762,0.0213623,0.0538635,0.017395,-0.0448608,-0.037384,0.0263977
1228,0.0212097,-0.071106,-0.0141907,0.0161743,-0.173645,0.0233459,-0.08255,-0.0273132,0.0163269
1228,0.0289917,0.0376892,-0.00793457,-0.015564,-0.145264,0.00473022,0.0180054,-0.0151062,0.0817871
1228,0.0205994,0.155792,0.0125122,0.00686646,-0.0253296,0.0123596,0.0289917,-0.0088501,0.0624084
1228,0.00228882,0.212708,0.043335,0.00839233,0.0161743,0.0250244,0.0521851,-0.00976562,0.0740051
1228,0.00930786,0.193939,0.0198364,-0.00320435,-0.0621033,0.0177002,0.157318,-0.0236511,0.0666809
1228,-0.000152588,0.132904,0.0157166,0.0157166,-0.0454712,0.0343323,0.145721,-0.00488281,0.0567627
1228,-0.00671387,0.0944519,0.0186157,0.00106812,-0.0299072,0.00869751,0.0535583,0.0346375,0.062561
1228,0.0135803,0.0401306,0.0102234,0.00427246,-0.0436401,0.00991821,0.0163269,0.032959,0.0666809
1228,-0.0138855,-0.00305176,0.0138855,-0.00900269,-0.000305176,0.0196838,-0.0248718,-0.000305176,0.0515747
1229,0.00473022,-0.0140381,0.0112915,0.0248718,0.00701904,0.0227356,0.0137329,-0.0205994,0.067749
1229,0.00579834,-0.0115967,0.0387573,0.0169373,0.0422668,0.0250244,0.0326538,-0.00366211,-0.00915527
1229,-0.00274658,0.00305176,0.0109863,0.00656128,0.0376892,0.0141907,-0.0175476,-0.0120544,0.0227356
1229,0.00274658,-0.0212097,-0.0120544,0.00106812,0.068512,-0.015564,-0.00961304,0.050354,0.0387573
1229,-0.0247192,-0.025177,0.014801,-0.0233459,0.0672913,0.0360107,-0.0241089,0.0514221,-0.0132751
1229,0.00640869,-0.000610352,0.000762939,-0.0212097,0.0863647,0.0442505,-0.0120544,0.0334167,0.00274658
1229,0.00167847,-0.0143433,-0.00244141,-0.01297,0.0880432,0.0132751,-0.00701904,0.0218201,-0.0363159
1229,-0.0415039,-0.0852966,0.00350952,-0.00274658,0.0636292,0.025177,-0.0514221,-0.00656128,-0.0338745
1229,-0.0279236,-0.180054,-0.000610352,-0.000762939,-0.012207,0.0318909,-0.000457764,-0.0170898,-0.0350952
1229,-0.00427246,-0.208893,0.0138855,0.0280762,-0.106506,0.0369263,-0.00930786,-0.0392151,-0.0883484
1230,-0.010376,-0.0909424,0.0140381,0.0189209,-0.105438,0.0325012,-0.0540161,-0.00518799,-0.0419617
1230,0.035553,-0.017395,-0.00946045,0.00762939,0.00457764,0.0239563,-0.0665283,0.0337219,-0.0334167
1230,0.0813293,-0.0726318,0.0100708,0.0196838,0.0588989,0.0473022,0.00823975,0.0115967,-0.0222778
1230,0.0907898,-0.343018,0.00976562,0.00961304,0.136566,0.0387573,0.0286865,0.0305176,-0.00640869
1230,0.0672913,-0.297699,0.0263977,0.0125122,0.158234,0.0405884,-0.0508118,0.0294495,-0.0151062
1230,0.0508118,-0.0143433,0.0575256,-0.00305176,0.165863,0.0372314,-0.057373,0.0382996,-0.00701904
1230,0.0473022,0.257416,0.0527954,0.000152588,0.149994,0.0326538,0.0038147,0.0326538,0.0267029
1230,-0.000762939,0.449829,0.083313,0.0126648,0.144958,0.0292969,0.0212097,0.0463867,-0.0198364
1230,0.0123596,0.446625,0.0512695,0.0137329,0.135956,0.0369263,0.0283813,0.0410461,0.0320435
1230,0.0177002,0.349731,0.0134277,0.0254822,0.128479,0.0123596,0.0531006,0.0115967,0.0344849
1231,-0.000762939,0.241852,0.0218201,-0.0115967,0.131073,0.00747681,-0.017395,0.0088501,0.0306702
1231,0.00411987,0.133362,0.00778198,0.00961304,0.0285339,0.0193787,-0.0654602,0.0448608,0.0717163
1231,-0.00350952,0.0190735,0.0331116,0.0401306,0.150909,0.0184631,-0.0471497,0.0294495,0.000915527
1231,-0.0088501,-0.0463867,0.0318909,0.0164795,0.121613,0.015564,0.000457764,0.0245667,0.0280762
1231,0.00442505,-0.317688,-0.0125122,0.0132751,-0.107269,0.0152588,0.102997,-0.000915527,0.0268555
1231,-0.00259399,-0.48996,-0.00427246,0.0254822,-0.224457,0.0344849,0.0772095,-0.0390625,0.0012207
1231,0.00396729,-0.249329,0.0195312,0.00747681,-0.107574,0.0314331,0.0296021,-0.0453186,0.0215149
1231,-0.0239563,0.0317383,0.0372314,0.00930786,-0.0404358,0.0218201,-0.00106812,-0.0231934,0.0170898
1231,0.0115967,0.287628,0.0447083,0.0134277,-0.152283,0.0366211,-0.0187683,-0.0294495,0.0328064
1231,0.0445557,0.402527,0.0204468,0.0376892,-0.104675,0.00640869,-0.0563049,0.00869751,0.0482178
1232,0.0238037,0.297546,-0.00259399,0.00778198,-0.0944519,0.0233459,-0.0747681,0.017395,0.0296021
1232,0.0163269,0.178528,-0.00991821,0.00701904,-0.0669861,0.0386047,-0.043335,0.00137329,0.0309753
1232,0.0234985,0.0276184,-0.0328064,0.00732422,-0.0627136,0.00579834,-0.0132751,0.0265503,-0.00823975
1232,0.0100708,-0.0119019,-0.00946045,0.0257874,-0.0489807,0.0196838,0.0535583,-0.00961304,-0.03479
1232,0.00335693,-0.0227356,-0.000610352,0.0163269,0.00259399,0.00274658,0.0939941,-0.0224304,0.00930786
1232,0.00259399,-0.413666,0.0137329,0.0135803,0.0123596,0.0187683,0.0109863,0.0245667,-0.0314331
1232,0.0109863,-0.535583,0.0289917,0.00762939,0.0270081,0.00686646,-0.0128174,0.0012207,-0.0257874
1232,0.0265503,-0.410919,0.00488281,0.00335693,0.0268555,0.0221252,-0.00961304,0.0137329,0.012207
1232,0.0201416,-0.1091,0.000457764,-0.000457764,-0.0297546,0.0358582,0.00335693,0.00564575,-0.0193787
1232,0.0283813,0.274048,-0.00320435,-0.00289917,-0.0218201,-0.0204468,0.0979614,0.00259399,0.0126648
1233,0.0190735,0.439301,-0.010376,0.0271606,0.0305176,-0.0617981,0.118866,-0.00442505,0.012207
1233,0.00747681,0.388641,0.0186157,-0.000305176,-0.0088501,-0.0584412,0.0563049,-0.01297,-0.00244141
1233,0.00366211,0.26001,0.022583,-0.000152588,-0.0114441,-0.0616455,0.106049,0.00549316,0.0234985
1233,-0.00808716,0.14328,0.0231934,0.0270081,0.0282288,-0.0463867,0.0932312,0.0193787,0.00427246
1233,0.0088501,0.0614929,0.0151062,0.0166321,0.0114441,-0.0471497,0.027771,0.00259399,0.0180054
1233,0.0369263,0.0309753,0.0178528,0.0141907,0.0302124,-0.0746155,0.0427246,0.0140381,0.0289917
1233,-0.0126648,-0.0495911,0.0131226,-0.00106812,0.085907,-0.0488281,0.0506592,0.0402832,0.0282288
1233,-0.0244141,-0.22995,0.012207,-0.00213623,0.0880432,-0.0463867,0.0617981,0.0038147,0.0439453
1233,-0.0448608,-0.199127,0.0141907,0.0131226,0.0672913,-0.0352478,0.0012207,0.00534058,-0.0210571
1233,-0.0289917,-0.0436401,0.0166321,-0.0230408,0.0646973,-0.0468445,-0.039978,0.00991821,-0.0447083
1234,0.00152588,0.139465,-0.0112915,-0.00717163,0.0317383,-0.0462341,0.00823975,0.0163269,0.000610352
1234,0.0161743,0.253906,0.00946045,0.050354,0.00259399,-0.0450134,-0.00976562,0.0134277,-0.040741
1234,0.0300598,0.2742,0.0244141,-0.00610352,-0.0231934,-0.0508118,-0.00869751,0.00579834,-0.0183105
1234,0.0241089,0.154572,0.0344849,0.0144958,0.04776,-0.0393677,0.0105286,0.0274658,-0.0062561
1234,0.0112915,0.0744629,0.0463867,0.020752,0.12146,-0.0253296,-0.068512,0.00305176,-0.0239563
1234,0.00442505,0.0193787,0.0119019,-0.000152588,0.0895691,-0.0213623,-0.0216675,0.00320435,0.0114441
1234,0.00808716,-0.0604248,0.0201416,0.00732422,0.037384,0.0289917,-0.0260925,0.00473022,-0.0120544
1234,0.0105286,-0.104675,0.0248718,0.0134277,-0.116272,0.0343323,-0.055542,0.045929,-0.01297
1234,0.019989,-0.114746,0.014801,-0.0105286,-0.102081,0.0184631,-0.0712585,0.0614929,0.00366211
1234,-0.000915527,-0.185242,0.0106812,0.00610352,-0.0668335,0.0221252,-0.12619,0.0584412,-0.0265503
1235,0.0213623,-0.20813,-0.0178528,0.00793457,0.0256348,0.00518799,-0.124512,0.0372314,-0.0106812
1235,0.0401306,-0.176849,-0.0338745,0.0154114,0.0785828,0.0141907,-0.134277,0.0132751,-0.00640869
1235,0.0370789,-0.203552,-0.0297546,-0.00579834,0.00320435,0.0386047,-0.19928,-0.0157166,-0.0149536
1235,0.0282288,-0.262451,-0.0367737,-0.0106812,-0.00457764,0.00930786,-0.0767517,-0.0434875,-0.00488281
1235,0.0473022,-0.223694,0.017395,0.0286865,0.0167847,-0.00778198,-0.0411987,-0.0144958,-0.00579834
1235,0.0405884,-0.113983,-0.00564575,0.00747681,-0.0422668,0.0108337,-0.00915527,-0.0282288,-0.0224304
1235,0.0283813,-0.012207,0.0177002,0.0289917,-0.0549316,-0.00289917,-0.00244141,-0.00732422,0.0288391
1235,0.0201416,0.0842285,0.0267029,0.0161743,-0.00259399,0.0296021,-0.0257874,0.0126648,0.00488281
1235,0.0245667,0.147095,0.0135803,0.00442505,0.120697,0.0286865,0.00442505,0.0296021,0.0387573
1235,0.040741,0.181732,-0.00106812,0.0163269,0.219269,0.0169373,0.0050354,0.0442505,0.03479
1236,0.0195312,0.278473,0.0283813,0.0326538,0.0358582,0.0167847,-0.0274658,0.0309753,0.0325012
1236,0.018158,0.365295,0.0318909,0.0186157,-0.290222,-0.00610352,-0.0440979,0.0294495,0.042572
1236,-0.0292969,0.339661,0.0216675,0.017395,-0.179138,-0.00152588,-0.063324,0.0209045,0.00839233
1236,-0.0445557,0.203705,0.00213623,0.000305176,-0.078125,0.010376,0.0141907,-0.00610352,0.0138855
1236,-0.0218201,0.0282288,-0.0088501,-0.0157166,-0.0419617,0.00335693,0.130615,-0.0216675,0.00137329
1236,-0.0419617,-0.0546265,-0.0158691,-0.0114441,-0.0515747,0.0245667,0.0708008,0.0166321,0.00518799
1236,-0.0195312,-0.0866699,-0.00671387,-0.00259399,-0.0419617,0.0106812,0.0117493,0.012207,0.0262451
1236,0.015564,-0.0532532,-0.00183105,-0.0343323,-0.018158,-0.00411987,-0.0375366,0.0218201,0.0170898
1236,0.0106812,-0.0158691,0.012207,0.00823975,0.0386047,0.0158691,-0.0608826,0.0160217,-0.0256348
1236,0.0445557,-0.00747681,0.00671387,0.0201416,0.0791931,0.0431824,0.0294495,0.0294495,-0.00427246
1237,0.00534058,0.0144958,0.0132751,0.0195312,0.0369263,0.027771,0.0898743,0.020752,-0.0309753
1237,0.0312805,0.0782776,0.00442505,0.012207,-0.00823975,0.0424194,0.178223,-0.0050354,-0.00946045
1237,0.0379944,0.112915,0.00732422,0.0559998,0.0195312,0.0314331,0.168304,-0.00762939,0.00106812
1237,0.0250244,0.092926,0.0340271,0.0466919,-0.0517273,0.0163269,0.116119,-0.0141907,-0.045929
1237,0.0112915,0.0538635,-0.0111389,0.0157166,-0.0434875,0.0134277,0.114136,-0.0431824,-0.00839233
1237,0.0346375,0.00427246,0.010376,0.0105286,-0.0250244,0.0146484,0.0540161,-0.0204468,-0.0137329
1237,0.00320435,-0.0050354,0.0389099,0.0177002,-0.0469971,0.0410461,0.0665283,-0.015564,-0.0117493
1237,0.00213623,-0.0108337,0.0151062,-0.0154114,0.0146484,0.000152588,0.0894165,0.000762939,0.0447083
1237,0.0112915,0.00320435,-0.00579834,-0.0161743,0.0785828,0.000610352,0.0627136,0.00854492,0.00915527
1237,0.0341797,0.0418091,0.00289917,-0.0160217,0.0666809,0.0125122,0.0135803,-0.0105286,0.0202942
1238,0.0183105,-0.00198364,0.0242615,-0.0138855,0.125275,-0.0115967,0.0569153,-0.00823975,0.0325012
1238,-0.0164795,-0.0175476,0.0268555,0.0140381,0.149078,0.0166321,0.0448608,-0.00869751,0.00411987
1238,-0.00473022,-0.0427246,0.032959,0.0119019,0.00717163,0.015564,0.0177002,0.0268555,0.0343323
1238,0.00213623,-0.220795,0.0259399,0.0114441,0.0427246,0.0167847,-0.0488281,0.0300598,-0.0158691
1238,0.0198364,-0.50766,0.0527954,0.00900269,0.0154114,0.0265503,-0.0668335,0.0138855,0.0201416
1238,0.0292969,-0.4422,0.0688171,0.0274658,-0.230255,0.0100708,-0.0512695,0.0410461,0.0442505
1238,0.00869751,-0.171814,0.0640869,0.0308228,-0.132294,0.018158,-0.0372314,0.0341797,-0.00579834
1238,0.0149536,0.169983,0.0527954,0.0196838,-0.0747681,0.0245667,0.0427246,0.0196838,0.0296021
1238,0.0382996,0.381317,0.037384,0.0123596,0.0114441,0.0215149,0.00534058,0.00961304,0.0131226
1238,0.0231934,0.376587,0.0465393,-0.0108337,0.0361633,-0.00259399,-0.078125,-0.00244141,-0.0352478
1239,0.0250244,0.297546,-0.00411987,0.00610352,0.102844,0.00946045,-0.0706482,-0.00305176,0.0112915
1239,-0.0198364,0.159454,-0.0050354,0.0236511,0.0762939,0.00457764,-0.106201,0.012207,0.00793457
1239,0.0296021,0.088501,-0.0219727,0.00640869,0.0474548,0.00762939,0.00152588,0.000762939,0.017395
1239,0.0152588,-0.0140381,-0.0515747,0.00152588,-0.00259399,0.00228882,0.0762939,-0.0137329,-0.0117493
1239,-0.00259399,-0.11322,-0.0376892,-0.00747681,-0.0814819,0.0169373,0.0062561,-0.0126648,0.00259399
1239,0.0305176,-0.108795,-0.0485229,-0.0253296,-0.149384,0.0202942,-0.00778198,-0.0183105,-0.0245667
1239,0.00213623,-0.101013,0.0120544,-0.000152588,-0.0994873,0.00579834,0.00320435,0.0222778,-0.025177
1239,0.0134277,-0.0430298,0.0213623,0.0234985,-0.0543213,0.0270081,-0.0183105,0.000457764,-0.0482178
1239,0.0114441,-0.0709534,0.0234985,0.00915527,0.04776,0.0111389,-0.0163269,0.0189209,-0.019989
1239,0.0111389,-0.0939941,0.0193787,0.0416565,0.107269,0.00762939,0.130463,0.0421143,-0.00778198
1240,0.00152588,-0.209045,0.0263977,0.0128174,0.0149536,0.0224304,0.163574,0.0369263,-0.00350952
1240,0.0190735,-0.199738,0.0180054,0.0291443,-0.0263977,0.00747681,0.108032,0.04776,0.0170898
1240,-0.00595093,-0.111084,0.0192261,0.0114441,-0.0382996,0.0144958,0.038147,0.0302124,-0.0268555
1240,-0.00854492,-0.0390625,0.0297546,0.0128174,-0.0382996,0.0038147,0.0271606,0.0221252,0.0234985
1240,-0.0050354,0.030365,0.00213623,0.0172424,-0.0424194,0.00610352,-0.00259399,0.00747681,-0.000457764
1240,-0.020752,0.0744629,0.0131226,-0.00564575,-0.0292969,0.0149536,-0.0328064,-0.019989,0.0418091
1240,-0.00595093,0.114288,-0.00534058,-0.0012207,0.0457764,0.0088501,-0.00305176,-0.00961304,0.0596619
1240,-0.00137329,0.153503,-0.0273132,0.010376,0.0691223,0.0038147,-0.0218201,0.0038147,0.0131226
1240,0.0286865,0.185242,-0.000305176,0.0132751,0.0663757,-0.00518799,-0.0587463,-0.0102234,0.0584412
1240,0.0309753,0.241394,-0.0012207,0.0213623,0.0674438,0.00793457,-0.0984192,-0.0050354,0.0164795
1241,0.020752,0.223236,0.00457764,0.0222778,0.0842285,0.000915527,-0.0772095,-0.01297,0.0166321
1241,0.00396729,0.226288,0.00518799,0.0215149,0.0762939,0.0119019,-0.0740051,0.0100708,0.0341797
1241,-0.0248718,0.228729,-0.00366211,0.0273132,0.0804138,0.00213623,-0.0852966,0.0285339,0.00183105
1241,0.00579834,0.229187,0.00518799,-0.0120544,0.0744629,0.0239563,-0.0953674,0.0430298,0.0201416
1241,0.0262451,0.218201,0.00167847,0.0256348,0.0796509,0.0209045,-0.0827026,0.015564,0.0151062
1241,0.0169373,0.211029,0.0106812,0.00213623,0.0852966,0.014801,-0.0799561,-0.00778198,0.00274658
1241,0.00808716,-0.0352478,0.0230408,0.0102234,-0.254364,-0.00793457,-0.0579834,0.0169373,0.0244141
1241,0.0163269,-0.121002,0.0447083,0.010376,-0.0517273,0.00747681,0.0628662,0.0190735,0.0138855
1241,0.00823975,-0.157928,0.0563049,0.00228882,0.0271606,0.0613403,0.0398254,-0.0138855,0.0262451
1241,0.0186157,-0.0990295,0.06073,-0.0358582,0.102234,0.0187683,0.0572205,0.0114441,0.0105286
1242,0.0332642,-0.045166,0.0161743,-0.00946045,0.0476074,0.0231934,0.0175476,0.0178528,0.0180054
1242,0.0242615,0.00564575,-0.0236511,0.01297,-0.012207,0.0323486,-0.0300598,0.0112915,0.0184631
1242,0.0198364,0.0178528,-0.0204468,-0.00488281,-0.0672913,-0.0338745,-0.0012207,0.0354004,0.0154114
