Frame,RF,VL,BF,TA,SOL,GAS_MED,GAS_LAT,GLUT_MED,GLUT_MAX,,,,,,,,,,,,,,,,,,,,,,,,,,,,,,,,,,,,,,,,,
397,0.0109863,-0.526276,-0.032196,0.190582,-0.00854492,0.00900269,-0.0187683,0.0114441,0.0556946,,,,,,,,,,,,,,,,,,,,,,,,,,,,,,,,,,,,,,,,,
397,0.00915527,-0.500336,-0.045929,0.0450134,0.0151062,0.0276184,-0.00869751,-0.045166,0.0163269,,,,,,,,,,,,,,,,,,,,,,,,,,,,,,,,,,,,,,,,,
397,0.030365,-0.556641,-0.0311279,-0.0648499,0.00427246,0.000457764,0.00335693,-0.0117493,0.0219727,,,,,,,,,,,,,,,,,,,,,,,,,,,,,,,,,,,,,,,,,
397,0.0578308,-0.532074,-0.0282288,-0.198059,0.0234985,0.0201416,-0.000915527,-0.0238037,0.0260925,,,,,,,,,,,,,,,,,,,,,,,,,,,,,,,,,,,,,,,,,
397,0.0309753,-0.496674,-0.0364685,0.0935364,0.0178528,-0.0158691,-0.00213623,0.000610352,0.0354004,,,,,,,,,,,,,,,,,,,,,,,,,,,,,,,,,,,,,,,,,
397,0.0494385,-0.396271,-0.0799561,0.0636292,-0.000915527,0.0221252,0.00656128,-0.0358582,0.000305176,,,,,,,,,,,,,,,,,,,,,,,,,,,,,,,,,,,,,,,,,
397,0.00717163,-0.346985,-0.0704956,0.264435,0.0102234,0.0135803,0.00717163,-0.0158691,0.0149536,,,,,,,,,,,,,,,,,,,,,,,,,,,,,,,,,,,,,,,,,
397,0.0454712,-0.31723,-0.0691223,0.275574,0.0163269,0.0305176,-0.00106812,-0.0424194,0.0263977,,,,,,,,,,,,,,,,,,,,,,,,,,,,,,,,,,,,,,,,,
397,0.00488281,-0.340271,-0.078125,0.178375,0.00549316,0.00747681,0.00518799,-0.0338745,0.00152588,,,,,,,,,,,,,,,,,,,,,,,,,,,,,,,,,,,,,,,,,
397,0.0601196,-0.319061,-0.0852966,0.262146,0.0340271,0.0250244,-0.0163269,-0.0541687,0,,,,,,,,,,,,,,,,,,,,,,,,,,,,,,,,,,,,,,,,,
398,0.00488281,-0.291138,-0.0672913,0.179749,0.0193787,-0.0236511,0.00473022,-0.0140381,0.00732422,,,,,,,,,,,,,,,,,,,,,,,,,,,,,,,,,,,,,,,,,
398,0.0230408,-0.272675,-0.0811768,-0.0799561,0.0149536,0.0349426,0.0112915,0.00152588,0.0050354,,,,,,,,,,,,,,,,,,,,,,,,,,,,,,,,,,,,,,,,,
398,-0.0323486,-0.309906,-0.0785828,-0.206909,-0.00915527,-0.0160217,0.010376,0.0440979,0.018158,,,,,,,,,,,,,,,,,,,,,,,,,,,,,,,,,,,,,,,,,
398,-0.019989,-0.384979,-0.118866,-0.249634,0.0219727,0.00686646,0.0297546,0.0227356,0.0379944,,,,,,,,,,,,,,,,,,,,,,,,,,,,,,,,,,,,,,,,,
398,-0.0260925,-0.340881,-0.0564575,-0.154877,0.0192261,-0.0233459,0.0338745,0.025177,0.0184631,,,,,,,,,,,,,,,,,,,,,,,,,,,,,,,,,,,,,,,,,
398,0.0271606,-0.257263,-0.0834656,-0.245209,0.045929,0.00778198,0.0334167,0.0378418,0.0292969,,,,,,,,,,,,,,,,,,,,,,,,,,,,,,,,,,,,,,,,,
398,0.0253296,-0.213928,-0.0817871,-0.263519,0.025177,-0.0135803,0.0390625,0.0062561,0.0215149,,,,,,,,,,,,,,,,,,,,,,,,,,,,,,,,,,,,,,,,,
398,0.0317383,-0.186462,-0.123749,-0.285797,0.0698853,0.000305176,0.0308228,0.00259399,0.037384,,,,,,,,,,,,,,,,,,,,,,,,,,,,,,,,,,,,,,,,,
398,0.0248718,-0.175323,-0.10376,-0.0891113,0.0241089,-0.0245667,0.0605774,-0.0236511,0.0141907,,,,,,,,,,,,,,,,,,,,,,,,,,,,,,,,,,,,,,,,,
398,0.0535583,-0.150146,-0.147858,0.0111389,0.0170898,0.0334167,0.0558472,-0.0154114,0.0341797,,,,,,,,,,,,,,,,,,,,,,,,,,,,,,,,,,,,,,,,,
399,0.0408936,-0.17807,-0.113831,0.116882,0.0219727,0.0012207,0.0572205,-0.00366211,0.0193787,,,,,,,,,,,,,,,,,,,,,,,,,,,,,,,,,,,,,,,,,
399,0.0691223,-0.181885,-0.139618,0.142822,0.0222778,0.0276184,0.0820923,0.0088501,0.0224304,,,,,,,,,,,,,,,,,,,,,,,,,,,,,,,,,,,,,,,,,
399,0.0587463,-0.19516,-0.13031,0.0991821,-0.00946045,0.0149536,0.0744629,0.0257874,0.0263977,,,,,,,,,,,,,,,,,,,,,,,,,,,,,,,,,,,,,,,,,
399,0.0605774,-0.139008,-0.156555,0.00656128,0.0012207,0.0727844,0.109711,-0.00228882,0.00183105,,,,,,,,,,,,,,,,,,,,,,,,,,,,,,,,,,,,,,,,,
399,0.0213623,-0.134583,-0.155945,-0.0840759,-0.0271606,0.0358582,0.112457,0.00732422,0.0219727,,,,,,,,,,,,,,,,,,,,,,,,,,,,,,,,,,,,,,,,,
399,0.00564575,-0.162506,-0.176392,-0.194397,-0.00900269,0.0544739,0.092926,0.0370789,0.0189209,,,,,,,,,,,,,,,,,,,,,,,,,,,,,,,,,,,,,,,,,
399,-0.0579834,-0.183716,-0.134125,-0.0709534,-0.0257874,-0.00808716,0.149536,0.022583,0.00839233,,,,,,,,,,,,,,,,,,,,,,,,,,,,,,,,,,,,,,,,,
399,-0.043335,-0.240021,-0.152893,0.0611877,-0.0170898,-0.0218201,0.0888062,0.040741,0.0102234,,,,,,,,,,,,,,,,,,,,,,,,,,,,,,,,,,,,,,,,,
399,-0.100403,-0.309143,-0.0860596,0.0256348,-0.0346375,-0.000610352,0.083313,0.00930786,0.0137329,,,,,,,,,,,,,,,,,,,,,,,,,,,,,,,,,,,,,,,,,
399,-0.0531006,-0.4245,-0.0744629,-0.0683594,0.00152588,0.00564575,0.052948,0.00854492,0.0268555,,,,,,,,,,,,,,,,,,,,,,,,,,,,,,,,,,,,,,,,,
400,-0.0712585,-0.49408,-0.037384,-0.0338745,-0.015564,0.00457764,0.0445557,0.00640869,0.0572205,,,,,,,,,,,,,,,,,,,,,,,,,,,,,,,,,,,,,,,,,
400,-0.0112915,-0.429535,0.000305176,-0.0326538,0.0170898,0.00808716,0.0318909,-0.00854492,0.0660706,,,,,,,,,,,,,,,,,,,,,,,,,,,,,,,,,,,,,,,,,
400,-0.0338745,-0.452881,0.062561,-0.0317383,0.00289917,-0.00457764,0.0161743,0.0326538,0.0830078,,,,,,,,,,,,,,,,,,,,,,,,,,,,,,,,,,,,,,,,,
400,-0.00930786,-0.36499,0.108185,0.00167847,0.018158,0.0271606,-0.0158691,0.0138855,0.112,,,,,,,,,,,,,,,,,,,,,,,,,,,,,,,,,,,,,,,,,
400,0.0364685,-0.353699,0.155182,0.0610352,0.0379944,0.00869751,-0.0619507,0.0202942,0.102234,,,,,,,,,,,,,,,,,,,,,,,,,,,,,,,,,,,,,,,,,
400,0.00213623,-0.292053,0.212097,0.0309753,0.0369263,0.0296021,-0.0253296,-0.0296021,0.0608826,,,,,,,,,,,,,,,,,,,,,,,,,,,,,,,,,,,,,,,,,
400,0.0437927,-0.258331,0.235138,0.0550842,0.0421143,0.0172424,-0.0209045,-0.0178528,0.110931,,,,,,,,,,,,,,,,,,,,,,,,,,,,,,,,,,,,,,,,,
400,0.00427246,-0.196533,0.292969,0.0445557,0.00167847,0.0161743,0.0038147,-0.0195312,0.0640869,,,,,,,,,,,,,,,,,,,,,,,,,,,,,,,,,,,,,,,,,
400,0.0572205,-0.0733948,0.285492,0.0663757,0.017395,0.0146484,-0.0289917,-0.0524902,0.0805664,,,,,,,,,,,,,,,,,,,,,,,,,,,,,,,,,,,,,,,,,
400,0.0361633,0.0794983,0.335388,-0.0244141,-0.00762939,-0.0299072,0.0131226,0.00549316,0.0466919,,,,,,,,,,,,,,,,,,,,,,,,,,,,,,,,,,,,,,,,,
401,0.0518799,0.321198,0.336151,-0.0880432,0.04776,-0.0038147,-0.0175476,0.12085,0.0198364,,,,,,,,,,,,,,,,,,,,,,,,,,,,,,,,,,,,,,,,,
401,0.00747681,0.562744,0.331116,-0.0521851,0.0167847,0.0192261,-0.0421143,0.234528,0.0761414,,,,,,,,,,,,,,,,,,,,,,,,,,,,,,,,,,,,,,,,,
401,-0.0109863,0.770721,0.311432,-0.058136,0.0140381,0.0392151,-0.0332642,0.315399,0.0628662,,,,,,,,,,,,,,,,,,,,,,,,,,,,,,,,,,,,,,,,,
401,-0.0218201,0.855103,0.301056,-0.042572,-0.00457764,0.00259399,-0.040741,0.381927,0.0808716,,,,,,,,,,,,,,,,,,,,,,,,,,,,,,,,,,,,,,,,,
401,-0.0247192,0.978241,0.296936,-0.0613403,-0.0050354,-0.00564575,-0.0212097,0.378113,0.0337219,,,,,,,,,,,,,,,,,,,,,,,,,,,,,,,,,,,,,,,,,
401,-0.0337219,1.04935,0.22171,-0.085144,0.0474548,-0.0117493,-0.0526428,0.411377,0.0334167,,,,,,,,,,,,,,,,,,,,,,,,,,,,,,,,,,,,,,,,,
401,-0.017395,1.13037,0.244904,-0.0259399,-0.0131226,-0.0234985,-0.0309753,0.397644,-0.0311279,,,,,,,,,,,,,,,,,,,,,,,,,,,,,,,,,,,,,,,,,
401,0.0190735,1.26434,0.196686,0.0520325,0.00579834,-0.0131226,-0.0819397,0.381927,-0.0402832,,,,,,,,,,,,,,,,,,,,,,,,,,,,,,,,,,,,,,,,,
401,0.0253296,1.483,0.190735,0.0897217,0.00915527,-0.0224304,-0.0772095,0.301819,-0.0952148,,,,,,,,,,,,,,,,,,,,,,,,,,,,,,,,,,,,,,,,,
401,0.0527954,1.71951,0.158691,-0.0167847,0.0111389,-0.00366211,-0.0793457,0.28595,-0.092926,,,,,,,,,,,,,,,,,,,,,,,,,,,,,,,,,,,,,,,,,
402,0.0302124,2.03156,0.159149,0.00442505,0.0128174,-0.0038147,-0.0387573,0.233612,-0.112,,,,,,,,,,,,,,,,,,,,,,,,,,,,,,,,,,,,,,,,,
402,0.0300598,2.38281,0.132446,-0.0978088,-0.00259399,0.0151062,-0.00579834,0.132904,-0.126038,,,,,,,,,,,,,,,,,,,,,,,,,,,,,,,,,,,,,,,,,
402,0.0653076,2.68295,0.13382,-0.164032,0.0354004,-0.0149536,-0.0387573,0.114288,-0.0914001,,,,,,,,,,,,,,,,,,,,,,,,,,,,,,,,,,,,,,,,,
402,0.0698853,3.0159,0.124359,-0.0794983,-0.00656128,-0.0160217,-0.0216675,0.000610352,-0.0970459,,,,,,,,,,,,,,,,,,,,,,,,,,,,,,,,,,,,,,,,,
402,0.0444031,3.16498,0.101471,-0.0924683,0.015564,0.0012207,-0.0767517,-0.0128174,-0.0604248,,,,,,,,,,,,,,,,,,,,,,,,,,,,,,,,,,,,,,,,,
402,0.00656128,3.20221,0.103149,-0.254822,-0.0247192,0.0358582,-0.0984192,-0.115967,-0.112152,,,,,,,,,,,,,,,,,,,,,,,,,,,,,,,,,,,,,,,,,
402,0.00350952,3.02338,0.0389099,-0.280304,0.0205994,0.0537109,-0.103302,-0.139313,-0.0590515,,,,,,,,,,,,,,,,,,,,,,,,,,,,,,,,,,,,,,,,,
402,-0.0344849,2.64282,0.0163269,-0.0280762,0.0193787,-0.00152588,-0.0874329,-0.163116,-0.04776,,,,,,,,,,,,,,,,,,,,,,,,,,,,,,,,,,,,,,,,,
402,0.0315857,2.20749,0.010376,0.312653,0.0286865,0.000762939,-0.0973511,-0.148468,-0.0515747,,,,,,,,,,,,,,,,,,,,,,,,,,,,,,,,,,,,,,,,,
402,-0.000915527,1.77368,-0.050354,0.344238,0.017395,-0.0111389,-0.140076,-0.171356,-0.00839233,,,,,,,,,,,,,,,,,,,,,,,,,,,,,,,,,,,,,,,,,
403,0.0166321,1.55045,-0.0991821,0.299225,0.00946045,0.0434875,-0.0953674,-0.229187,-0.00671387,,,,,,,,,,,,,,,,,,,,,,,,,,,,,,,,,,,,,,,,,
403,0.0245667,1.47873,-0.16861,0.14801,0.0582886,0.0222778,-0.123138,-0.226288,0.0302124,,,,,,,,,,,,,,,,,,,,,,,,,,,,,,,,,,,,,,,,,
403,-0.00854492,1.52603,-0.201874,0.0230408,0.0250244,0.0405884,-0.115967,-0.267944,0.000915527,,,,,,,,,,,,,,,,,,,,,,,,,,,,,,,,,,,,,,,,,
403,0.0498962,1.51443,-0.302887,0.0935364,0.0198364,0.0227356,-0.113525,-0.26062,0.0338745,,,,,,,,,,,,,,,,,,,,,,,,,,,,,,,,,,,,,,,,,
403,0.00640869,1.50314,-0.346222,0.124359,0.00183105,0.017395,-0.0958252,-0.283813,0.0230408,,,,,,,,,,,,,,,,,,,,,,,,,,,,,,,,,,,,,,,,,
403,-0.000305176,1.38123,-0.379181,0.105743,0.00869751,0.0164795,-0.0843811,-0.280762,0.0642395,,,,,,,,,,,,,,,,,,,,,,,,,,,,,,,,,,,,,,,,,
403,-0.0157166,1.18713,-0.387878,-0.0140381,-0.012207,-0.0184631,-0.0547791,-0.287018,0.0527954,,,,,,,,,,,,,,,,,,,,,,,,,,,,,,,,,,,,,,,,,
403,-0.0134277,0.988312,-0.431976,-0.019989,0.0350952,0.0379944,-0.032959,-0.267944,0.0639343,,,,,,,,,,,,,,,,,,,,,,,,,,,,,,,,,,,,,,,,,
403,-0.0263977,0.71106,-0.424347,0.0737,0.020752,0.0196838,0.0109863,-0.235291,0.0628662,,,,,,,,,,,,,,,,,,,,,,,,,,,,,,,,,,,,,,,,,
403,-0.0320435,0.570068,-0.447693,0.078125,0.0166321,0.0366211,0.0335693,-0.230255,0.0292969,,,,,,,,,,,,,,,,,,,,,,,,,,,,,,,,,,,,,,,,,
404,-0.012207,0.293579,-0.450897,0.105896,0.0227356,0.0190735,-0.00717163,-0.167999,0.0804138,,,,,,,,,,,,,,,,,,,,,,,,,,,,,,,,,,,,,,,,,
404,0.000610352,0.144501,-0.404663,0.00946045,0.0143433,0.0350952,0.019989,-0.175171,0.0592041,,,,,,,,,,,,,,,,,,,,,,,,,,,,,,,,,,,,,,,,,
404,-0.0210571,-0.0317383,-0.404816,0.0219727,0.0596619,0.0012207,0.0344849,-0.132141,0.0622559,,,,,,,,,,,,,,,,,,,,,,,,,,,,,,,,,,,,,,,,,
404,-0.0183105,-0.114136,-0.372467,-0.0308228,-0.00167847,0.00320435,0.0657654,-0.138397,0.0471497,,,,,,,,,,,,,,,,,,,,,,,,,,,,,,,,,,,,,,,,,
404,0.0108337,-0.261841,-0.34668,-0.0587463,0.0396729,0.00183105,0.0221252,-0.0956726,0.0794983,,,,,,,,,,,,,,,,,,,,,,,,,,,,,,,,,,,,,,,,,
404,-0.0152588,-0.356598,-0.291595,-0.0842285,-0.035553,-0.0108337,0.0802612,-0.104828,0.0364685,,,,,,,,,,,,,,,,,,,,,,,,,,,,,,,,,,,,,,,,,
404,0.0260925,-0.44281,-0.32135,-0.0382996,0.0280762,-0.0038147,0.0593567,-0.0592041,0.0758362,,,,,,,,,,,,,,,,,,,,,,,,,,,,,,,,,,,,,,,,,
404,0.0132751,-0.558319,-0.267944,-0.0260925,-0.00320435,-0.030365,0.101013,-0.0700378,0.052948,,,,,,,,,,,,,,,,,,,,,,,,,,,,,,,,,,,,,,,,,
404,0.0450134,-0.625305,-0.249023,0.0669861,0.0315857,-0.00854492,0.0598145,-0.0318909,0.042572,,,,,,,,,,,,,,,,,,,,,,,,,,,,,,,,,,,,,,,,,
404,0.0471497,-0.741577,-0.21225,0.109558,0.0421143,-0.0247192,0.0631714,0.00976562,0.0361633,,,,,,,,,,,,,,,,,,,,,,,,,,,,,,,,,,,,,,,,,
405,0.0489807,-0.775909,-0.193176,-0.0701904,0.0175476,0.0318909,0.063324,-0.0201416,0.0357056,,,,,,,,,,,,,,,,,,,,,,,,,,,,,,,,,,,,,,,,,
405,0.0392151,-0.881195,-0.137787,0.00930786,0.00595093,-0.00259399,0.0775146,0.0408936,0.0564575,,,,,,,,,,,,,,,,,,,,,,,,,,,,,,,,,,,,,,,,,
405,0.0233459,-0.983124,-0.122833,0.0627136,0.0135803,-0.0144958,0.125275,0.0219727,0.0314331,,,,,,,,,,,,,,,,,,,,,,,,,,,,,,,,,,,,,,,,,
405,0.0311279,-1.16791,-0.0881958,-0.00564575,0.0149536,-0.0152588,0.125885,0.0543213,0.0610352,,,,,,,,,,,,,,,,,,,,,,,,,,,,,,,,,,,,,,,,,
405,0.0228882,-1.31653,-0.0265503,-0.347595,0.00915527,0.0311279,0.121155,-0.00198364,0.0149536,,,,,,,,,,,,,,,,,,,,,,,,,,,,,,,,,,,,,,,,,
405,0.0483704,-1.55869,-0.0134277,-0.233002,0.0331116,0.0152588,0.0846863,0.0622559,0.0375366,,,,,,,,,,,,,,,,,,,,,,,,,,,,,,,,,,,,,,,,,
405,0.0292969,-1.71204,0.0274658,-0.0949097,0.0282288,0.0538635,0.117645,0.0427246,-0.0151062,,,,,,,,,,,,,,,,,,,,,,,,,,,,,,,,,,,,,,,,,
405,0.0354004,-1.92871,0.0224304,0.050354,0.0328064,0.00534058,0.118713,0.0622559,0.0288391,,,,,,,,,,,,,,,,,,,,,,,,,,,,,,,,,,,,,,,,,
405,-0.015564,-2.13608,0.0646973,0.124969,0.0218201,-0.00167847,0.110168,0.0640869,-0.0305176,,,,,,,,,,,,,,,,,,,,,,,,,,,,,,,,,,,,,,,,,
405,0.00335693,-2.27646,0.0737,0.0875854,0.0314331,0.0169373,0.108337,0.0480652,-0.0215149,,,,,,,,,,,,,,,,,,,,,,,,,,,,,,,,,,,,,,,,,
406,0.00396729,-2.41867,0.0975037,0.0387573,0.00198364,-0.0233459,0.106201,0.0621033,-0.0354004,,,,,,,,,,,,,,,,,,,,,,,,,,,,,,,,,,,,,,,,,
406,0.0262451,-2.46689,0.119476,-0.032959,-0.0230408,0.032196,0.108643,0.0489807,-0.0363159,,,,,,,,,,,,,,,,,,,,,,,,,,,,,,,,,,,,,,,,,
406,0.0341797,-2.50122,0.167694,0.0323486,-0.0344849,0.01297,0.0869751,0.0602722,-0.000457764,,,,,,,,,,,,,,,,,,,,,,,,,,,,,,,,,,,,,,,,,
406,0.0369263,-2.36237,0.209656,-0.00930786,-0.0335693,0.0138855,0.104218,0.0241089,-0.0480652,,,,,,,,,,,,,,,,,,,,,,,,,,,,,,,,,,,,,,,,,
406,0.0686646,-2.27448,0.193176,0.00701904,0.000305176,0.0233459,0.0817871,0.0765991,0.0131226,,,,,,,,,,,,,,,,,,,,,,,,,,,,,,,,,,,,,,,,,
406,0.0463867,-2.117,0.227203,-0.0331116,-0.0198364,0.012207,0.123444,0.0473022,-0.0192261,,,,,,,,,,,,,,,,,,,,,,,,,,,,,,,,,,,,,,,,,
406,0.088501,-1.96182,0.21286,-0.0337219,0.0228882,-0.00183105,0.0904846,0.0502014,-0.00274658,,,,,,,,,,,,,,,,,,,,,,,,,,,,,,,,,,,,,,,,,
406,0.0410461,-1.74652,0.241241,-0.0410461,-0.0230408,0.0149536,0.125275,0.0236511,-0.0396729,,,,,,,,,,,,,,,,,,,,,,,,,,,,,,,,,,,,,,,,,
406,0.0541687,-1.56128,0.22644,-0.0654602,0.0114441,0.00839233,0.0880432,0.00167847,-0.0521851,,,,,,,,,,,,,,,,,,,,,,,,,,,,,,,,,,,,,,,,,
406,0.01297,-1.40976,0.238495,0.000915527,0.000915527,-0.00396729,0.108643,-0.0306702,-0.0543213,,,,,,,,,,,,,,,,,,,,,,,,,,,,,,,,,,,,,,,,,
407,0.0270081,-1.25183,0.18158,-0.0320435,0.0224304,0.0141907,0.0865173,0.0184631,-0.0349426,,,,,,,,,,,,,,,,,,,,,,,,,,,,,,,,,,,,,,,,,
407,-0.0138855,-1.17813,0.184631,-0.00778198,0.038147,-0.0131226,0.0759888,0.0050354,-0.0164795,,,,,,,,,,,,,,,,,,,,,,,,,,,,,,,,,,,,,,,,,
407,-0.0480652,-1.07956,0.187683,-0.0653076,0.0367737,0.0291443,0.045929,-0.00183105,-0.043335,,,,,,,,,,,,,,,,,,,,,,,,,,,,,,,,,,,,,,,,,
407,-0.0958252,-1.01227,0.188446,-0.052948,0.0305176,0.0245667,0.0508118,0.0227356,0.00656128,,,,,,,,,,,,,,,,,,,,,,,,,,,,,,,,,,,,,,,,,
407,-0.0627136,-0.86319,0.187225,-0.078125,-0.0050354,0.0260925,0.103149,-0.012207,-0.0215149,,,,,,,,,,,,,,,,,,,,,,,,,,,,,,,,,,,,,,,,,
407,-0.0440979,-0.751038,0.179291,-0.0740051,0.043335,0.0328064,0.0668335,0.0334167,0.0135803,,,,,,,,,,,,,,,,,,,,,,,,,,,,,,,,,,,,,,,,,
407,-0.101166,-0.598297,0.19577,-0.0656128,0.00549316,0.00900269,0.117188,0.0177002,-0.0134277,,,,,,,,,,,,,,,,,,,,,,,,,,,,,,,,,,,,,,,,,
407,-0.0346375,-0.472107,0.161743,-0.0576782,0.0131226,-0.0202942,0.0976562,0.0532532,0.00411987,,,,,,,,,,,,,,,,,,,,,,,,,,,,,,,,,,,,,,,,,
407,-0.0682068,-0.343018,0.209351,-0.0312805,-0.00549316,-0.014801,0.124512,0.0674438,0.00808716,,,,,,,,,,,,,,,,,,,,,,,,,,,,,,,,,,,,,,,,,
407,-0.00732422,-0.182495,0.158539,-0.0291443,0.0300598,0.042572,0.114136,0.00457764,0.00396729,,,,,,,,,,,,,,,,,,,,,,,,,,,,,,,,,,,,,,,,,
408,0.0062561,-0.102692,0.188904,-0.0169373,0.0515747,0.00595093,0.105286,0.0387573,0.0160217,,,,,,,,,,,,,,,,,,,,,,,,,,,,,,,,,,,,,,,,,
408,0.00228882,0.0491333,0.169067,-0.0154114,0.0569153,0.00930786,0.0613403,0.0219727,0.0202942,,,,,,,,,,,,,,,,,,,,,,,,,,,,,,,,,,,,,,,,,
408,0.0164795,0.0964355,0.16983,0.0325012,0.0637817,0.00244141,0.0299072,0.0646973,0.0460815,,,,,,,,,,,,,,,,,,,,,,,,,,,,,,,,,,,,,,,,,
408,0.00564575,0.212097,0.163879,0.0050354,0.0250244,0.0170898,0.0460815,-0.000457764,0.0192261,,,,,,,,,,,,,,,,,,,,,,,,,,,,,,,,,,,,,,,,,
408,0.0578308,0.257721,0.121613,0.0128174,-0.0346375,0.00427246,0.0115967,0.0541687,0.0648499,,,,,,,,,,,,,,,,,,,,,,,,,,,,,,,,,,,,,,,,,
408,0.0257874,0.38269,0.146027,-0.0117493,-0.0653076,0.018158,0.0170898,0.0335693,0.0271606,,,,,,,,,,,,,,,,,,,,,,,,,,,,,,,,,,,,,,,,,
408,0.0437927,0.375977,0.120392,-0.000915527,-0.0190735,0.00717163,-0.0105286,0.0668335,0.0476074,,,,,,,,,,,,,,,,,,,,,,,,,,,,,,,,,,,,,,,,,
408,0.015564,0.395966,0.172119,-0.0128174,-0.00991821,-0.0108337,0.0196838,0.0860596,0.0534058,,,,,,,,,,,,,,,,,,,,,,,,,,,,,,,,,,,,,,,,,
408,0.0608826,0.420532,0.103302,-0.00350952,0.0465393,-0.00869751,0.0436401,0.0506592,0.0686646,,,,,,,,,,,,,,,,,,,,,,,,,,,,,,,,,,,,,,,,,
408,0.052948,0.367279,0.136719,-0.00915527,0.0259399,-0.00320435,0.0401306,0.0686646,0.0611877,,,,,,,,,,,,,,,,,,,,,,,,,,,,,,,,,,,,,,,,,
409,0.0675964,0.358124,0.0938416,-0.0448608,0.0387573,0.0567627,0.0653076,0.0431824,0.0628662,,,,,,,,,,,,,,,,,,,,,,,,,,,,,,,,,,,,,,,,,
409,0.0531006,0.270538,0.0978088,-0.0187683,0.0297546,0.0309753,0.00793457,0.0709534,0.0927734,,,,,,,,,,,,,,,,,,,,,,,,,,,,,,,,,,,,,,,,,
409,0.0305176,0.284882,0.115356,-0.038147,0.00793457,0.0546265,-0.00747681,0.0375366,0.0457764,,,,,,,,,,,,,,,,,,,,,,,,,,,,,,,,,,,,,,,,,
409,0.0320435,0.278625,0.0726318,0.00152588,0.065155,0.0088501,-0.0375366,0.0479126,0.0680542,,,,,,,,,,,,,,,,,,,,,,,,,,,,,,,,,,,,,,,,,
409,0.00335693,0.285492,0.124817,-0.0325012,0.00305176,0.00320435,-0.0242615,0.00366211,0.0411987,,,,,,,,,,,,,,,,,,,,,,,,,,,,,,,,,,,,,,,,,
409,0.0128174,0.293274,0.117798,0.000152588,0.0202942,-0.00518799,-0.085907,0.0215149,0.0312805,,,,,,,,,,,,,,,,,,,,,,,,,,,,,,,,,,,,,,,,,
409,-0.0285339,0.299683,0.131531,0.00900269,-0.0334167,-0.0231934,-0.0270081,0.00488281,0.0389099,,,,,,,,,,,,,,,,,,,,,,,,,,,,,,,,,,,,,,,,,
409,-0.0254822,0.331726,0.0942993,-0.000915527,-0.0274658,0.0462341,-0.0682068,0.0436401,0.0819397,,,,,,,,,,,,,,,,,,,,,,,,,,,,,,,,,,,,,,,,,
409,-0.0541687,0.366974,0.120392,0.0276184,-0.0204468,0.0263977,-0.0482178,0.0189209,0.0544739,,,,,,,,,,,,,,,,,,,,,,,,,,,,,,,,,,,,,,,,,
409,-0.0132751,0.415192,0.092926,-0.0062561,0.0242615,0.025177,-0.0773621,0.0170898,0.0306702,,,,,,,,,,,,,,,,,,,,,,,,,,,,,,,,,,,,,,,,,
410,-0.0222778,0.359039,0.110779,0.0401306,0.0392151,-0.0270081,-0.0741577,0.0471497,0.0630188,,,,,,,,,,,,,,,,,,,,,,,,,,,,,,,,,,,,,,,,,
410,0.0367737,0.380402,0.0892639,0.00717163,0.0141907,0.00198364,-0.0654602,0.00549316,0.01297,,,,,,,,,,,,,,,,,,,,,,,,,,,,,,,,,,,,,,,,,
410,0.0146484,0.335388,0.0883484,0.0427246,0.00793457,-0.0198364,-0.112152,0.0408936,0.0335693,,,,,,,,,,,,,,,,,,,,,,,,,,,,,,,,,,,,,,,,,
410,0.0038147,0.345001,0.0872803,0.0160217,0.00976562,-0.0283813,-0.0802612,0.0141907,-0.00808716,,,,,,,,,,,,,,,,,,,,,,,,,,,,,,,,,,,,,,,,,
410,0.0465393,0.365448,0.0630188,0.0137329,0.0511169,0.0131226,-0.10849,0.0935364,0.0366211,,,,,,,,,,,,,,,,,,,,,,,,,,,,,,,,,,,,,,,,,
410,0.0370789,0.42572,0.0898743,0.0256348,-0.0050354,-0.0216675,-0.0775146,0.0419617,-0.000610352,,,,,,,,,,,,,,,,,,,,,,,,,,,,,,,,,,,,,,,,,
410,0.0643921,0.428009,0.0532532,0.0216675,0.017395,-0.000915527,-0.10025,0.0866699,0.0193787,,,,,,,,,,,,,,,,,,,,,,,,,,,,,,,,,,,,,,,,,
410,0.0177002,0.440216,0.0813293,0.0151062,0.0294495,-0.0276184,-0.0880432,0.0236511,-0.0146484,,,,,,,,,,,,,,,,,,,,,,,,,,,,,,,,,,,,,,,,,
410,0.037384,0.515289,0.0500488,0.0230408,0.0283813,0.0210571,-0.0582886,0.0468445,-0.0177002,,,,,,,,,,,,,,,,,,,,,,,,,,,,,,,,,,,,,,,,,
410,-0.0115967,0.544128,0.058136,0.0422668,-0.0163269,-0.0187683,-0.0657654,0.0569153,-0.0408936,,,,,,,,,,,,,,,,,,,,,,,,,,,,,,,,,,,,,,,,,
411,-0.0242615,0.597687,0.0517273,0.0314331,0.00518799,0.020752,-0.0531006,0.0204468,-0.0831604,,,,,,,,,,,,,,,,,,,,,,,,,,,,,,,,,,,,,,,,,
411,-0.0224304,0.600739,0.0592041,0.0411987,0.022583,0.00762939,-0.0830078,0.0732422,-0.0416565,,,,,,,,,,,,,,,,,,,,,,,,,,,,,,,,,,,,,,,,,
411,0.00915527,0.644989,0.059967,0.0515747,-0.00976562,-0.00732422,-0.0598145,0.0135803,-0.0794983,,,,,,,,,,,,,,,,,,,,,,,,,,,,,,,,,,,,,,,,,
411,0.0247192,0.64209,0.019989,0.0479126,0.00717163,0.0160217,-0.0971985,-0.0450134,-0.0790405,,,,,,,,,,,,,,,,,,,,,,,,,,,,,,,,,,,,,,,,,
411,-0.010376,0.666656,0.0550842,-0.00396729,0.00717163,0.0363159,-0.0567627,-0.0341797,-0.0556946,,,,,,,,,,,,,,,,,,,,,,,,,,,,,,,,,,,,,,,,,
411,0.0338745,0.683594,0.00732422,0.020752,0.0457764,0.0436401,-0.0521851,-0.0265503,-0.0202942,,,,,,,,,,,,,,,,,,,,,,,,,,,,,,,,,,,,,,,,,
411,0.000457764,0.646515,0.0630188,0.0340271,0.00228882,0.0296021,-0.0134277,-0.00930786,-0.0509644,,,,,,,,,,,,,,,,,,,,,,,,,,,,,,,,,,,,,,,,,
411,0.0305176,0.699158,0.019989,0.00106812,0.00961304,0.019989,0.0158691,-0.0364685,-0.0799561,,,,,,,,,,,,,,,,,,,,,,,,,,,,,,,,,,,,,,,,,
411,0.00640869,0.632629,0.0294495,0.0202942,-0.0302124,-0.0508118,0.0187683,-0.000457764,-0.0547791,,,,,,,,,,,,,,,,,,,,,,,,,,,,,,,,,,,,,,,,,
411,0.00564575,0.676727,0.0317383,-0.010376,-0.0267029,-0.0125122,0.0238037,-0.0315857,-0.057373,,,,,,,,,,,,,,,,,,,,,,,,,,,,,,,,,,,,,,,,,
412,0.00701904,0.636292,0.0349426,0.0468445,-0.0196838,-0.0233459,0.0100708,0.00167847,-0.0431824,,,,,,,,,,,,,,,,,,,,,,,,,,,,,,,,,,,,,,,,,
412,0.0190735,0.635376,0.0544739,0.0279236,-0.0193787,0.00564575,0.0335693,-0.0442505,-0.0485229,,,,,,,,,,,,,,,,,,,,,,,,,,,,,,,,,,,,,,,,,
412,0.0361633,0.605164,0.0396729,0.0471497,0.0184631,-0.0233459,-0.00579834,0.01297,0.000305176,,,,,,,,,,,,,,,,,,,,,,,,,,,,,,,,,,,,,,,,,
412,-0.000457764,0.605621,0.0517273,0.012207,0.0271606,0.018158,0.0201416,-0.0239563,-0.042572,,,,,,,,,,,,,,,,,,,,,,,,,,,,,,,,,,,,,,,,,
412,0.032196,0.611267,0.0506592,0.000762939,0.0422668,0.0146484,-0.0100708,-0.0177002,0.0062561,,,,,,,,,,,,,,,,,,,,,,,,,,,,,,,,,,,,,,,,,
412,0.000610352,0.604401,0.0617981,0.0167847,0.0288391,-0.0343323,-0.0050354,-0.0256348,-0.0233459,,,,,,,,,,,,,,,,,,,,,,,,,,,,,,,,,,,,,,,,,
412,0.0184631,0.61554,0.0170898,0.00869751,0.0559998,0.0234985,0.00350952,-0.039978,-0.0186157,,,,,,,,,,,,,,,,,,,,,,,,,,,,,,,,,,,,,,,,,
412,0.0146484,0.645752,0.0514221,0.0309753,0.0270081,-0.00549316,0.00152588,-0.0354004,-0.0135803,,,,,,,,,,,,,,,,,,,,,,,,,,,,,,,,,,,,,,,,,
412,0.0196838,0.713043,0.0566101,0.0088501,0.0326538,0.0305176,-0.0553894,-0.0265503,-0.0109863,,,,,,,,,,,,,,,,,,,,,,,,,,,,,,,,,,,,,,,,,
412,0.0222778,0.724335,0.0259399,0.0196838,0.0375366,-0.00305176,-0.0109863,0.01297,-0.0140381,,,,,,,,,,,,,,,,,,,,,,,,,,,,,,,,,,,,,,,,,
413,0.0134277,0.817413,0.0379944,0.0233459,0.0260925,0.00335693,-0.00991821,-0.042572,-0.0285339,,,,,,,,,,,,,,,,,,,,,,,,,,,,,,,,,,,,,,,,,
413,0.0106812,0.868683,-0.00442505,0.0331116,0.0363159,-0.0062561,-0.0456238,-0.0346375,-0.0050354,,,,,,,,,,,,,,,,,,,,,,,,,,,,,,,,,,,,,,,,,
413,-0.0038147,0.963745,0.0471497,0.0300598,0.0119019,-0.000610352,-0.0219727,-0.0515747,-0.0106812,,,,,,,,,,,,,,,,,,,,,,,,,,,,,,,,,,,,,,,,,
413,0.00976562,0.952454,0.0238037,0.0386047,0.0282288,0.0219727,-0.0456238,-0.00396729,-0.000152588,,,,,,,,,,,,,,,,,,,,,,,,,,,,,,,,,,,,,,,,,
413,-0.0202942,0.963745,0.0505066,0.0382996,-0.00808716,0.00183105,-0.0205994,-0.0256348,-0.0305176,,,,,,,,,,,,,,,,,,,,,,,,,,,,,,,,,,,,,,,,,
413,0.0106812,0.959778,0.0331116,-0.0196838,0.0292969,0.0227356,-0.00564575,-0.0239563,-0.00320435,,,,,,,,,,,,,,,,,,,,,,,,,,,,,,,,,,,,,,,,,
413,-0.00473022,0.956421,0.0488281,0.0102234,-0.00854492,0.0340271,0.0263977,0.00701904,-0.0135803,,,,,,,,,,,,,,,,,,,,,,,,,,,,,,,,,,,,,,,,,
413,0.0297546,0.947113,0.0140381,0.0395203,0.0306702,0.0334167,0.019989,-0.0152588,-0.0160217,,,,,,,,,,,,,,,,,,,,,,,,,,,,,,,,,,,,,,,,,
413,0.000610352,0.894623,0.0317383,0.0413513,0.0360107,0.0334167,0.000457764,-0.0143433,0.00564575,,,,,,,,,,,,,,,,,,,,,,,,,,,,,,,,,,,,,,,,,
413,-0.00320435,0.844879,0.0297546,-0.0125122,0.0259399,0.0146484,0.0361633,0.00350952,0.00793457,,,,,,,,,,,,,,,,,,,,,,,,,,,,,,,,,,,,,,,,,
414,-0.0038147,0.767365,0.0152588,0.00778198,0.027771,0.00137329,0.00762939,0.0372314,0.0314331,,,,,,,,,,,,,,,,,,,,,,,,,,,,,,,,,,,,,,,,,
414,-0.00778198,0.733948,0.0134277,-0.0161743,0.0215149,0.0317383,0.0384521,-0.00869751,-0.0126648,,,,,,,,,,,,,,,,,,,,,,,,,,,,,,,,,,,,,,,,,
414,0.00427246,0.731201,0.0172424,0.00534058,0.00488281,0.0323486,0.0219727,0.0369263,0.0338745,,,,,,,,,,,,,,,,,,,,,,,,,,,,,,,,,,,,,,,,,
414,0.0012207,0.75531,0.0222778,0.0289917,-0.0450134,0.0242615,0.0369263,0.0288391,0.0221252,,,,,,,,,,,,,,,,,,,,,,,,,,,,,,,,,,,,,,,,,
414,0.0427246,0.728912,-0.0166321,0.015564,-0.00839233,0.0505066,0.01297,0.0505066,0.0364685,,,,,,,,,,,,,,,,,,,,,,,,,,,,,,,,,,,,,,,,,
414,0.0482178,0.669403,0.0135803,0.018158,-0.0390625,0.0434875,0.00762939,0.0512695,-0.0012207,,,,,,,,,,,,,,,,,,,,,,,,,,,,,,,,,,,,,,,,,
414,0.0448608,0.616302,-0.00335693,0.0218201,-0.0369263,0.040741,0.00167847,0.0619507,0.0201416,,,,,,,,,,,,,,,,,,,,,,,,,,,,,,,,,,,,,,,,,
414,0.0360107,0.57724,-0.0166321,0.0587463,0.00656128,0.00411987,0.000152588,0.0531006,0.0334167,,,,,,,,,,,,,,,,,,,,,,,,,,,,,,,,,,,,,,,,,
414,0.00823975,0.569611,-0.00656128,0.0126648,0.00305176,0.0334167,0.0358582,-0.00686646,0.0335693,,,,,,,,,,,,,,,,,,,,,,,,,,,,,,,,,,,,,,,,,
414,0.0610352,0.490265,-0.0596619,0.0088501,0.0245667,0.0537109,0.0416565,0.0434875,0.0141907,,,,,,,,,,,,,,,,,,,,,,,,,,,,,,,,,,,,,,,,,
415,0.00411987,0.426788,-0.00259399,-0.0131226,0.0160217,0.0334167,0.0376892,-0.0178528,-0.0117493,,,,,,,,,,,,,,,,,,,,,,,,,,,,,,,,,,,,,,,,,
415,0.000305176,0.402069,-0.0312805,0.0100708,0.0552368,-0.00793457,0.0419617,-0.00411987,0.00350952,,,,,,,,,,,,,,,,,,,,,,,,,,,,,,,,,,,,,,,,,
415,0.0120544,0.372162,-0.00411987,-0.00762939,0.0518799,-0.00518799,0.0869751,0.0408936,0.00213623,,,,,,,,,,,,,,,,,,,,,,,,,,,,,,,,,,,,,,,,,
415,0.0189209,0.346069,-0.0357056,0.0202942,0.0967407,-0.0404358,0.043335,0.00762939,0.00305176,,,,,,,,,,,,,,,,,,,,,,,,,,,,,,,,,,,,,,,,,
415,-0.025177,0.240784,-0.0215149,0.0773621,0.0183105,-0.071106,0.0515747,0.0234985,-0.0143433,,,,,,,,,,,,,,,,,,,,,,,,,,,,,,,,,,,,,,,,,
415,0.0112915,0.236206,-0.0495911,0.0393677,0.00671387,-0.0119019,0.0624084,0.0120544,-0.00762939,,,,,,,,,,,,,,,,,,,,,,,,,,,,,,,,,,,,,,,,,
415,-0.020752,0.227814,-0.06073,0.0448608,-0.00549316,-0.027771,0.0538635,0.0511169,0.00259399,,,,,,,,,,,,,,,,,,,,,,,,,,,,,,,,,,,,,,,,,
415,0.0115967,0.225983,-0.0708008,0.00411987,0.0212097,0.00915527,0.0708008,0.0286865,0.0062561,,,,,,,,,,,,,,,,,,,,,,,,,,,,,,,,,,,,,,,,,
415,-0.0115967,0.145416,-0.0663757,0.00732422,0.0125122,-0.0523376,0.0314331,0.0260925,-0.00320435,,,,,,,,,,,,,,,,,,,,,,,,,,,,,,,,,,,,,,,,,
415,0.00442505,0.0346375,-0.0582886,0.0123596,-0.0611877,-0.00961304,0.0314331,0.0239563,-0.0236511,,,,,,,,,,,,,,,,,,,,,,,,,,,,,,,,,,,,,,,,,
416,-0.00396729,-0.0325012,-0.0747681,-0.0088501,-0.0201416,0.00701904,0.0234985,0.045929,-0.00793457,,,,,,,,,,,,,,,,,,,,,,,,,,,,,,,,,,,,,,,,,
416,0.00991821,-0.136566,-0.0663757,-0.00991821,-0.0245667,-0.0114441,0.0483704,-0.0114441,-0.0161743,,,,,,,,,,,,,,,,,,,,,,,,,,,,,,,,,,,,,,,,,
416,0.0337219,-0.23468,-0.0752258,-0.0120544,0.0209045,-0.00778198,0.0389099,0.0415039,0.0462341,,,,,,,,,,,,,,,,,,,,,,,,,,,,,,,,,,,,,,,,,
416,0.00823975,-0.27832,-0.0622559,-0.0134277,-0.00442505,0.0119019,0.0708008,0.0283813,0.0166321,,,,,,,,,,,,,,,,,,,,,,,,,,,,,,,,,,,,,,,,,
416,0.01297,-0.411377,-0.10025,0.00610352,0.0561523,0.0204468,-0.0038147,0.0498962,0.0354004,,,,,,,,,,,,,,,,,,,,,,,,,,,,,,,,,,,,,,,,,
416,-0.0184631,-0.505219,-0.0947571,0.000610352,0.0288391,0.00686646,0.035553,0.0177002,0.01297,,,,,,,,,,,,,,,,,,,,,,,,,,,,,,,,,,,,,,,,,
416,0.00930786,-0.57785,-0.126343,0.0195312,0.0413513,0.0210571,0.00167847,0.00915527,0.0241089,,,,,,,,,,,,,,,,,,,,,,,,,,,,,,,,,,,,,,,,,
416,-0.0106812,-0.670319,-0.104065,0.0245667,-0.0123596,0.0180054,0.0109863,0.0259399,0.0115967,,,,,,,,,,,,,,,,,,,,,,,,,,,,,,,,,,,,,,,,,
416,0.0140381,-0.689697,-0.111694,-0.00274658,0.0390625,0.050354,-0.0151062,0.00991821,0.0131226,,,,,,,,,,,,,,,,,,,,,,,,,,,,,,,,,,,,,,,,,
416,-0.018158,-0.732117,-0.0984192,0.0352478,-0.0108337,0.0218201,0.0193787,0.0466919,0.042572,,,,,,,,,,,,,,,,,,,,,,,,,,,,,,,,,,,,,,,,,
417,0.00335693,-0.734406,-0.10437,-0.00152588,0.000610352,0.0392151,0.0483704,-0.000305176,0.0294495,,,,,,,,,,,,,,,,,,,,,,,,,,,,,,,,,,,,,,,,,
417,0.0166321,-0.799866,-0.133667,0.0141907,0.00640869,0.052948,0.0117493,0.0230408,0.0289917,,,,,,,,,,,,,,,,,,,,,,,,,,,,,,,,,,,,,,,,,
417,-0.00442505,-0.789032,-0.13031,-0.0128174,-0.0350952,0.0314331,0.059967,0.045929,0.0154114,,,,,,,,,,,,,,,,,,,,,,,,,,,,,,,,,,,,,,,,,
417,0.0273132,-0.81955,-0.114136,0.0050354,0.00991821,-0.00411987,0.0308228,0.0340271,0.052948,,,,,,,,,,,,,,,,,,,,,,,,,,,,,,,,,,,,,,,,,
417,-0.00717163,-0.839386,-0.118256,0.00564575,0.0138855,-0.0286865,0.0608826,0.0117493,0.0352478,,,,,,,,,,,,,,,,,,,,,,,,,,,,,,,,,,,,,,,,,
417,0.0151062,-0.848236,-0.155945,-0.0123596,0.0405884,-0.00793457,0.037384,0.0395203,0.0502014,,,,,,,,,,,,,,,,,,,,,,,,,,,,,,,,,,,,,,,,,
417,-0.00274658,-0.853882,-0.13443,-0.00930786,0.0126648,-0.040741,0.0538635,0.0523376,0.0416565,,,,,,,,,,,,,,,,,,,,,,,,,,,,,,,,,,,,,,,,,
417,-0.0175476,-0.834503,-0.118866,0.00198364,0.0164795,0.00442505,0.0270081,0.012207,0.0354004,,,,,,,,,,,,,,,,,,,,,,,,,,,,,,,,,,,,,,,,,
417,0.0169373,-0.876007,-0.124359,0.0509644,0.0349426,-0.000305176,-0.00396729,0.0392151,0.052948,,,,,,,,,,,,,,,,,,,,,,,,,,,,,,,,,,,,,,,,,
417,0.0132751,-0.859222,-0.10376,0.0177002,0.0563049,0.0364685,-0.0138855,0.0323486,0.0447083,,,,,,,,,,,,,,,,,,,,,,,,,,,,,,,,,,,,,,,,,
418,0.0112915,-0.87265,-0.125427,0.0588989,0.0675964,0.0193787,-0.0169373,0.0569153,0.0457764,,,,,,,,,,,,,,,,,,,,,,,,,,,,,,,,,,,,,,,,,
418,0.018158,-0.812988,-0.0976562,0.00686646,0.0415039,0.0309753,-0.00930786,0.018158,0.0195312,,,,,,,,,,,,,,,,,,,,,,,,,,,,,,,,,,,,,,,,,
418,0.0276184,-0.769653,-0.140533,0.00762939,0.0402832,0.0248718,-0.038147,0.01297,0.0440979,,,,,,,,,,,,,,,,,,,,,,,,,,,,,,,,,,,,,,,,,
418,0.000610352,-0.711517,-0.0996399,0.00213623,-0.0292969,0.0241089,-0.0241089,0.0227356,0.0262451,,,,,,,,,,,,,,,,,,,,,,,,,,,,,,,,,,,,,,,,,
418,0.00701904,-0.670013,-0.122833,0.0187683,-0.0115967,0.0233459,-0.0523376,0.0352478,0.0248718,,,,,,,,,,,,,,,,,,,,,,,,,,,,,,,,,,,,,,,,,
418,-0.00717163,-0.635681,-0.0968933,-0.00793457,-0.0328064,-0.0114441,0.00320435,0.0172424,-0.00900269,,,,,,,,,,,,,,,,,,,,,,,,,,,,,,,,,,,,,,,,,
418,0.0268555,-0.571289,-0.124359,0.0196838,0.00106812,-0.00961304,-0.0161743,0.00640869,0.0134277,,,,,,,,,,,,,,,,,,,,,,,,,,,,,,,,,,,,,,,,,
418,-0.01297,-0.563507,-0.126648,0.0270081,0.0222778,-0.0256348,0.0175476,0.0325012,0.00335693,,,,,,,,,,,,,,,,,,,,,,,,,,,,,,,,,,,,,,,,,
418,-0.032959,-0.516205,-0.0706482,-0.012207,0.0413513,0.000610352,0.032959,0.0270081,0.0119019,,,,,,,,,,,,,,,,,,,,,,,,,,,,,,,,,,,,,,,,,
418,-0.00534058,-0.563049,-0.105286,0.0123596,0.0727844,-0.0178528,0.00396729,0.0534058,0.0396729,,,,,,,,,,,,,,,,,,,,,,,,,,,,,,,,,,,,,,,,,
419,-0.00518799,-0.503235,-0.0881958,-0.0263977,0.043335,0.0108337,0.0216675,0.0335693,0.00244141,,,,,,,,,,,,,,,,,,,,,,,,,,,,,,,,,,,,,,,,,
419,-0.0161743,-0.496826,-0.0778198,0.00183105,0.0805664,-0.00518799,0.00366211,0.0564575,0.0462341,,,,,,,,,,,,,,,,,,,,,,,,,,,,,,,,,,,,,,,,,
419,-0.0248718,-0.427399,-0.0460815,-0.0296021,-0.00808716,0.0186157,0.0392151,0.0563049,0.00900269,,,,,,,,,,,,,,,,,,,,,,,,,,,,,,,,,,,,,,,,,
419,-0.0140381,-0.397949,-0.0689697,-0.00457764,-0.0389099,0.0349426,-0.0285339,0.0665283,0.00518799,,,,,,,,,,,,,,,,,,,,,,,,,,,,,,,,,,,,,,,,,
419,-0.00518799,-0.34668,-0.0460815,-0.0183105,-0.113525,0.0239563,-0.0331116,0.0483704,-0.00747681,,,,,,,,,,,,,,,,,,,,,,,,,,,,,,,,,,,,,,,,,
419,0.0468445,-0.281219,-0.0617981,-0.0297546,-0.0306702,0.0372314,-0.0357056,0.0401306,0.0105286,,,,,,,,,,,,,,,,,,,,,,,,,,,,,,,,,,,,,,,,,
419,0.00518799,-0.256653,-0.0218201,0.0259399,-0.0369263,0.0286865,-0.0627136,0.0698853,0.0154114,,,,,,,,,,,,,,,,,,,,,,,,,,,,,,,,,,,,,,,,,
419,0.0265503,-0.145721,-0.0289917,-0.0167847,0.0050354,0.0332642,-0.0639343,0.0123596,0.0038147,,,,,,,,,,,,,,,,,,,,,,,,,,,,,,,,,,,,,,,,,
419,0.00656128,-0.116882,-0.0128174,0.0642395,-0.0393677,0.0221252,-0.0454712,0.0157166,0.0161743,,,,,,,,,,,,,,,,,,,,,,,,,,,,,,,,,,,,,,,,,
419,0.0128174,-0.134277,-0.00183105,0.0311279,-0.00900269,0.0161743,-0.0761414,0.00946045,0.0161743,,,,,,,,,,,,,,,,,,,,,,,,,,,,,,,,,,,,,,,,,
420,0.0404358,-0.154724,-0.0178528,0.00778198,0.0440979,0.0241089,-0.0579834,0.0216675,0.00259399,,,,,,,,,,,,,,,,,,,,,,,,,,,,,,,,,,,,,,,,,
420,0.0212097,-0.108948,0.00976562,-0.00198364,0.0265503,0.0428772,-0.0143433,-0.00274658,-0.0378418,,,,,,,,,,,,,,,,,,,,,,,,,,,,,,,,,,,,,,,,,
420,0.0149536,-0.128021,0.00976562,0.0462341,0.0799561,0.0166321,-0.00305176,0.01297,-0.0109863,,,,,,,,,,,,,,,,,,,,,,,,,,,,,,,,,,,,,,,,,
420,0.000457764,-0.119324,0.0323486,0.00442505,0.0480652,0.0212097,0.0222778,-0.0184631,-0.0331116,,,,,,,,,,,,,,,,,,,,,,,,,,,,,,,,,,,,,,,,,
420,0.0273132,-0.157623,0.0213623,0.00823975,0.00991821,0.0230408,0.0146484,-0.0140381,-0.0267029,,,,,,,,,,,,,,,,,,,,,,,,,,,,,,,,,,,,,,,,,
420,-0.0257874,-0.125885,0.0645447,0.0119019,-0.0700378,-0.0131226,0.0300598,-0.0134277,-0.0614929,,,,,,,,,,,,,,,,,,,,,,,,,,,,,,,,,,,,,,,,,
420,0.00595093,-0.0483704,0.050354,-0.0286865,-0.0657654,0.0196838,-0.0175476,-0.0280762,-0.0187683,,,,,,,,,,,,,,,,,,,,,,,,,,,,,,,,,,,,,,,,,
420,-0.0149536,-0.0756836,0.0445557,-0.00442505,0.00198364,-0.0238037,-0.0106812,0.00137329,-0.01297,,,,,,,,,,,,,,,,,,,,,,,,,,,,,,,,,,,,,,,,,
420,-0.0161743,-0.0338745,0.0558472,-0.00808716,0.00457764,-0.0375366,-0.0267029,-0.0169373,-0.0231934,,,,,,,,,,,,,,,,,,,,,,,,,,,,,,,,,,,,,,,,,
420,-0.00442505,-0.0538635,0.0675964,-0.00701904,0.0210571,-0.0161743,-0.0541687,-0.019989,-0.00732422,,,,,,,,,,,,,,,,,,,,,,,,,,,,,,,,,,,,,,,,,
421,-0.00274658,-0.00976562,0.0457764,-0.00305176,0.018158,0.0450134,-0.000915527,-0.0123596,-0.0364685,,,,,,,,,,,,,,,,,,,,,,,,,,,,,,,,,,,,,,,,,
421,0.0360107,-0.0193787,0.0738525,0.0190735,0.0186157,0.0350952,-0.0416565,0.0112915,-0.000305176,,,,,,,,,,,,,,,,,,,,,,,,,,,,,,,,,,,,,,,,,
421,-0.00488281,0.00106812,0.092926,0.0357056,0.00106812,0.0694275,0.0132751,-0.00640869,-0.0387573,,,,,,,,,,,,,,,,,,,,,,,,,,,,,,,,,,,,,,,,,
421,0.0280762,0.0393677,0.058136,0.0315857,0.0570679,0.0660706,0.00183105,0.0119019,-0.00213623,,,,,,,,,,,,,,,,,,,,,,,,,,,,,,,,,,,,,,,,,
421,0.00564575,0.0788879,0.109711,0.0630188,0.0325012,-0.0170898,0.0236511,0.00167847,-0.00427246,,,,,,,,,,,,,,,,,,,,,,,,,,,,,,,,,,,,,,,,,
421,0.0209045,0.11261,0.0817871,0.0216675,0.0457764,-0.04776,0.00335693,0.00335693,0.0190735,,,,,,,,,,,,,,,,,,,,,,,,,,,,,,,,,,,,,,,,,
421,0.0111389,0.131836,0.0839233,0.0419617,0.0230408,-0.0805664,0.0212097,-0.00579834,0.00762939,,,,,,,,,,,,,,,,,,,,,,,,,,,,,,,,,,,,,,,,,
421,-0.0105286,0.123138,0.0772095,0.0250244,0.0283813,-0.0341797,0.00747681,-0.0267029,-0.00564575,,,,,,,,,,,,,,,,,,,,,,,,,,,,,,,,,,,,,,,,,
421,-0.00930786,0.116425,0.0709534,0.00656128,-0.0318909,-0.0454712,0.00411987,0.0190735,-0.00930786,,,,,,,,,,,,,,,,,,,,,,,,,,,,,,,,,,,,,,,,,
421,0.012207,0.148315,0.0933838,-0.0213623,-0.00320435,0.00701904,0.0134277,0.00213623,-0.0151062,,,,,,,,,,,,,,,,,,,,,,,,,,,,,,,,,,,,,,,,,
422,0.000610352,0.12146,0.083313,-0.0250244,0.000610352,0.00427246,0.00442505,0.0521851,0.0146484,,,,,,,,,,,,,,,,,,,,,,,,,,,,,,,,,,,,,,,,,
422,-0.00167847,0.139313,0.085144,-0.0488281,-0.0283813,0.0172424,-0.00198364,-0.00976562,-0.00427246,,,,,,,,,,,,,,,,,,,,,,,,,,,,,,,,,,,,,,,,,
422,0.0210571,0.0996399,0.0738525,-0.0172424,0.000152588,0.0115967,-0.0146484,0.0062561,0.00823975,,,,,,,,,,,,,,,,,,,,,,,,,,,,,,,,,,,,,,,,,
422,0.0326538,0.133667,0.102997,0.000457764,-0.0265503,-0.0144958,0.0466919,0.00640869,-0.00320435,,,,,,,,,,,,,,,,,,,,,,,,,,,,,,,,,,,,,,,,,
422,0.0062561,0.117493,0.065155,0.0250244,0.0228882,-0.0119019,0.0254822,-0.0144958,0.00762939,,,,,,,,,,,,,,,,,,,,,,,,,,,,,,,,,,,,,,,,,
422,-0.0088501,0.127563,0.101929,0.00793457,-0.00869751,0.0593567,0.0357056,-0.0234985,-0.0144958,,,,,,,,,,,,,,,,,,,,,,,,,,,,,,,,,,,,,,,,,
422,0.0367737,0.14328,0.0621033,-0.0296021,0.0268555,0.0532532,0.03479,-0.0100708,-0.00839233,,,,,,,,,,,,,,,,,,,,,,,,,,,,,,,,,,,,,,,,,
422,0.00991821,0.130615,0.085907,0.0205994,0.0378418,0.012207,0.0611877,-0.0062561,-0.00396729,,,,,,,,,,,,,,,,,,,,,,,,,,,,,,,,,,,,,,,,,
422,0.00350952,0.200653,0.0737,-0.00366211,0.0546265,-0.019989,0.110321,-0.0370789,0.00900269,,,,,,,,,,,,,,,,,,,,,,,,,,,,,,,,,,,,,,,,,
422,-0.025177,0.17334,0.0474548,0.0216675,0.0692749,-0.0822449,0.055542,0.00839233,0.0221252,,,,,,,,,,,,,,,,,,,,,,,,,,,,,,,,,,,,,,,,,
423,-0.0180054,0.197144,0.0724792,-0.0140381,0.0691223,-0.0236511,0.0398254,-0.0404358,-0.01297,,,,,,,,,,,,,,,,,,,,,,,,,,,,,,,,,,,,,,,,,
423,0.0125122,0.179291,0.0527954,-0.00823975,0.0236511,-0.042572,0.0289917,0.00686646,0.0167847,,,,,,,,,,,,,,,,,,,,,,,,,,,,,,,,,,,,,,,,,
423,-0.00244141,0.174866,0.070343,-0.0201416,-0.0616455,0.0204468,0.0413513,-0.0234985,0.0012207,,,,,,,,,,,,,,,,,,,,,,,,,,,,,,,,,,,,,,,,,
423,0.0437927,0.17746,0.0402832,-0.00213623,-0.0221252,0.0115967,0.020752,0.00518799,0.0317383,,,,,,,,,,,,,,,,,,,,,,,,,,,,,,,,,,,,,,,,,
423,0.027771,0.15686,0.0846863,0.00640869,0.00289917,0.00717163,-0.0088501,-0.0106812,0.0163269,,,,,,,,,,,,,,,,,,,,,,,,,,,,,,,,,,,,,,,,,
423,0.0486755,0.161896,0.0523376,-0.00396729,0.0610352,0.00869751,-0.0473022,0.0115967,0.0291443,,,,,,,,,,,,,,,,,,,,,,,,,,,,,,,,,,,,,,,,,
423,0.0157166,0.157623,0.071106,0.0050354,0.0668335,-0.0242615,-0.00656128,-0.00167847,-0.00671387,,,,,,,,,,,,,,,,,,,,,,,,,,,,,,,,,,,,,,,,,
423,0.0457764,0.202942,0.0595093,-0.0137329,0.102386,0.0331116,0.00854492,-0.0151062,-0.0189209,,,,,,,,,,,,,,,,,,,,,,,,,,,,,,,,,,,,,,,,,
423,0.00442505,0.193481,0.0761414,0.0305176,0.0479126,0.014801,0.0184631,-0.0137329,-0.00534058,,,,,,,,,,,,,,,,,,,,,,,,,,,,,,,,,,,,,,,,,
423,0.0271606,0.235138,0.0842285,0.00869751,0.0398254,-0.000152588,0.0305176,-0.0253296,-0.00518799,,,,,,,,,,,,,,,,,,,,,,,,,,,,,,,,,,,,,,,,,
424,0.00213623,0.206299,0.0498962,0.042572,-0.039978,-0.0614929,0.0517273,0.039978,0.0334167,,,,,,,,,,,,,,,,,,,,,,,,,,,,,,,,,,,,,,,,,
424,0.0178528,0.261078,0.0512695,-0.00610352,-0.0787354,0.035553,0.0535583,0.0280762,0.00915527,,,,,,,,,,,,,,,,,,,,,,,,,,,,,,,,,,,,,,,,,
424,0.000305176,0.24353,0.0741577,0.035553,-0.0306702,0.0392151,0.00961304,0.0344849,0.0228882,,,,,,,,,,,,,,,,,,,,,,,,,,,,,,,,,,,,,,,,,
424,0.0241089,0.256042,0.022583,0.0363159,0.0250244,0.0596619,0.00518799,-0.0149536,0.0154114,,,,,,,,,,,,,,,,,,,,,,,,,,,,,,,,,,,,,,,,,
424,-0.00640869,0.200195,0.0456238,0.0288391,0.0216675,0.0392151,-0.012207,0.0421143,0.00549316,,,,,,,,,,,,,,,,,,,,,,,,,,,,,,,,,,,,,,,,,
424,0.0175476,0.240173,0.0627136,0.00869751,0.0302124,0.0431824,-0.0193787,-0.010376,-0.00762939,,,,,,,,,,,,,,,,,,,,,,,,,,,,,,,,,,,,,,,,,
424,0.0038147,0.213165,0.0462341,0.0469971,0.0572205,0.00778198,-0.0360107,-0.00839233,0.00549316,,,,,,,,,,,,,,,,,,,,,,,,,,,,,,,,,,,,,,,,,
424,0.0378418,0.25589,0.059967,-0.0143433,0.00915527,0.0241089,-0.0163269,-0.0326538,-0.018158,,,,,,,,,,,,,,,,,,,,,,,,,,,,,,,,,,,,,,,,,
424,0.00976562,0.261383,0.0218201,0.0352478,0.0144958,-0.0175476,-0.0595093,0.00869751,-0.00183105,,,,,,,,,,,,,,,,,,,,,,,,,,,,,,,,,,,,,,,,,
424,-0.000152588,0.251923,0.0386047,0.0262451,-0.00335693,-0.0259399,-0.0401306,-0.0491333,-0.0227356,,,,,,,,,,,,,,,,,,,,,,,,,,,,,,,,,,,,,,,,,
425,0.00976562,0.202637,0.0144958,0.0367737,-0.0062561,-0.0335693,0.00152588,0.0120544,0.00717163,,,,,,,,,,,,,,,,,,,,,,,,,,,,,,,,,,,,,,,,,
425,0.00961304,0.222778,0.0212097,-0.0151062,-0.0236511,-0.00244141,0.0602722,-0.0115967,0.00137329,,,,,,,,,,,,,,,,,,,,,,,,,,,,,,,,,,,,,,,,,
425,-0.00259399,0.149841,0.0209045,0.0228882,0.015564,-0.00656128,0.0392151,0.00350952,-0.00183105,,,,,,,,,,,,,,,,,,,,,,,,,,,,,,,,,,,,,,,,,
425,0.000152588,0.161438,0.0170898,-0.0292969,0.0233459,0.0341797,0.0352478,0.00534058,-0.0236511,,,,,,,,,,,,,,,,,,,,,,,,,,,,,,,,,,,,,,,,,
425,-0.00106812,0.157318,0.0227356,0.00305176,0.106354,-0.00137329,0.0140381,0.0445557,-0.00411987,,,,,,,,,,,,,,,,,,,,,,,,,,,,,,,,,,,,,,,,,
425,0.0088501,0.176239,0.0283813,0.00137329,0.110931,0.0247192,0.0497437,-0.00396729,-0.00488281,,,,,,,,,,,,,,,,,,,,,,,,,,,,,,,,,,,,,,,,,
425,-0.010376,0.195007,0.0167847,0.042572,0.151062,0.00595093,0.0193787,0.0276184,-0.0100708,,,,,,,,,,,,,,,,,,,,,,,,,,,,,,,,,,,,,,,,,
425,0.0276184,0.205536,0.0386047,0.00152588,0.0660706,0.0305176,0.0665283,-0.0213623,-0.0308228,,,,,,,,,,,,,,,,,,,,,,,,,,,,,,,,,,,,,,,,,
425,0.0259399,0.136566,0.0280762,-0.0012207,-0.0239563,0.0158691,0.0379944,0.0276184,0.0196838,,,,,,,,,,,,,,,,,,,,,,,,,,,,,,,,,,,,,,,,,
425,0.00167847,0.124359,0.0544739,-0.0363159,-0.0900269,0.012207,0.03479,-0.0119019,-0.0431824,,,,,,,,,,,,,,,,,,,,,,,,,,,,,,,,,,,,,,,,,
426,0.0360107,0.0701904,0.0198364,-0.0267029,-0.0637817,0.0205994,-0.00915527,-0.0157166,0.0062561,,,,,,,,,,,,,,,,,,,,,,,,,,,,,,,,,,,,,,,,,
426,0.0105286,0.0222778,0.0559998,0.00579834,-0.0230408,0.0227356,-0.00228882,-0.0062561,-0.0178528,,,,,,,,,,,,,,,,,,,,,,,,,,,,,,,,,,,,,,,,,
426,0.038147,0.000305176,0.0398254,0.00183105,0.0328064,0.0180054,-0.0379944,0.0299072,0.00869751,,,,,,,,,,,,,,,,,,,,,,,,,,,,,,,,,,,,,,,,,
426,0.010376,-0.0520325,0.0688171,0.0154114,-0.0154114,0.0437927,-0.065155,0.00442505,0.0138855,,,,,,,,,,,,,,,,,,,,,,,,,,,,,,,,,,,,,,,,,
426,0.00274658,-0.0674438,0.0247192,0.00564575,0.0442505,0.0143433,-0.107422,0.00640869,0.0161743,,,,,,,,,,,,,,,,,,,,,,,,,,,,,,,,,,,,,,,,,
426,-0.0268555,-0.108032,0.038147,0.00442505,0.00259399,-0.0210571,-0.10849,0.0320435,0.0108337,,,,,,,,,,,,,,,,,,,,,,,,,,,,,,,,,,,,,,,,,
426,-0.000152588,-0.0923157,0.0292969,0.00274658,0.000915527,0.0778198,-0.0500488,-0.0276184,-0.0343323,,,,,,,,,,,,,,,,,,,,,,,,,,,,,,,,,,,,,,,,,
426,-0.00793457,-0.118256,0.0050354,0.050354,-0.00473022,0.0570679,-0.0183105,0.00411987,0.0123596,,,,,,,,,,,,,,,,,,,,,,,,,,,,,,,,,,,,,,,,,
426,-0.000152588,-0.0602722,0.0386047,0.00656128,0.00869751,0.0865173,0.0291443,-0.027771,-0.0250244,,,,,,,,,,,,,,,,,,,,,,,,,,,,,,,,,,,,,,,,,
426,0.0172424,-0.0209045,0.0274658,0.0410461,0.0471497,0.0375366,0.13855,0.00167847,0.00289917,,,,,,,,,,,,,,,,,,,,,,,,,,,,,,,,,,,,,,,,,
427,0.0288391,-0.00564575,0.0527954,-0.0131226,-0.010376,0.0578308,0.175781,-0.0102234,0.00259399,,,,,,,,,,,,,,,,,,,,,,,,,,,,,,,,,,,,,,,,,
427,0.03479,-0.0590515,0.019989,0.00823975,-0.00259399,0.0598145,0.0949097,0.0436401,0.0167847,,,,,,,,,,,,,,,,,,,,,,,,,,,,,,,,,,,,,,,,,
427,0.015564,-0.0593567,0.0561523,0.0276184,0.0212097,0.0389099,0.108948,0.0291443,-0.0212097,,,,,,,,,,,,,,,,,,,,,,,,,,,,,,,,,,,,,,,,,
427,0.0486755,-0.0192261,0.0125122,0.0421143,0.0718689,0.0466919,0.0701904,0.0447083,0.0312805,,,,,,,,,,,,,,,,,,,,,,,,,,,,,,,,,,,,,,,,,
427,0.00595093,-0.00183105,0.0328064,0.052948,0.0367737,0.0512695,0.0593567,0.0337219,0.0111389,,,,,,,,,,,,,,,,,,,,,,,,,,,,,,,,,,,,,,,,,
427,0.0219727,-0.068512,0.0102234,0.0260925,-0.00350952,0.0302124,0.00152588,0.0430298,0.0305176,,,,,,,,,,,,,,,,,,,,,,,,,,,,,,,,,,,,,,,,,
427,0.0149536,-0.166321,0.0198364,0.0494385,-0.0196838,-0.0495911,-0.0422668,0.0166321,0.00839233,,,,,,,,,,,,,,,,,,,,,,,,,,,,,,,,,,,,,,,,,
427,0.0215149,-0.228577,0.00701904,-0.00488281,-0.0183105,-0.0480652,-0.0621033,0.0189209,-0.00961304,,,,,,,,,,,,,,,,,,,,,,,,,,,,,,,,,,,,,,,,,
427,-0.00167847,-0.28183,0.035553,0.0259399,-0.00701904,-0.100708,-0.0764465,0.000762939,0.0286865,,,,,,,,,,,,,,,,,,,,,,,,,,,,,,,,,,,,,,,,,
427,-0.00701904,-0.258026,0.0193787,-0.00259399,0.0285339,-0.088501,-0.0662231,-0.00671387,0.00915527,,,,,,,,,,,,,,,,,,,,,,,,,,,,,,,,,,,,,,,,,
428,-0.0332642,-0.331116,0.0314331,0.0038147,-0.01297,-0.105438,0.0105286,-0.00457764,-0.0192261,,,,,,,,,,,,,,,,,,,,,,,,,,,,,,,,,,,,,,,,,
428,-0.000610352,-0.303802,0.00152588,-0.0157166,-0.00320435,-0.0276184,-0.0311279,-0.018158,0.01297,,,,,,,,,,,,,,,,,,,,,,,,,,,,,,,,,,,,,,,,,
428,-0.0250244,-0.279999,0.0183105,-0.000762939,-0.000457764,-0.00518799,-0.057373,0.000152588,0.015564,,,,,,,,,,,,,,,,,,,,,,,,,,,,,,,,,,,,,,,,,
428,-0.000915527,-0.195007,0.00671387,0.00747681,0.0646973,0.00259399,-0.0898743,-0.0178528,0.0428772,,,,,,,,,,,,,,,,,,,,,,,,,,,,,,,,,,,,,,,,,
428,-0.0105286,-0.177307,0.0367737,0.0558472,0.0559998,-0.0881958,-0.00717163,-0.0224304,0.027771,,,,,,,,,,,,,,,,,,,,,,,,,,,,,,,,,,,,,,,,,
428,0.0358582,-0.164337,0.0161743,0.00930786,0.140839,-0.0442505,0.0270081,-0.00961304,0.0233459,,,,,,,,,,,,,,,,,,,,,,,,,,,,,,,,,,,,,,,,,
428,-0.0265503,-0.168152,0.0483704,0.018158,0.142212,-0.0184631,0.0352478,-0.0202942,0.042572,,,,,,,,,,,,,,,,,,,,,,,,,,,,,,,,,,,,,,,,,
428,0.0193787,-0.142517,0.0369263,0.00610352,0.141602,0.0315857,0.0686646,-0.0366211,0.0384521,,,,,,,,,,,,,,,,,,,,,,,,,,,,,,,,,,,,,,,,,
428,0.01297,-0.169525,0.0386047,0.0100708,0.0914001,0.0238037,0.110474,-0.0595093,0.0152588,,,,,,,,,,,,,,,,,,,,,,,,,,,,,,,,,,,,,,,,,
428,0.0236511,-0.14801,0.0218201,-0.0389099,0.0520325,0.0578308,0.0447083,-0.0621033,0.0317383,,,,,,,,,,,,,,,,,,,,,,,,,,,,,,,,,,,,,,,,,
429,-0.0149536,-0.152283,0.0233459,0.0268555,-0.0419617,0.0570679,0.0312805,-0.0292969,0.0160217,,,,,,,,,,,,,,,,,,,,,,,,,,,,,,,,,,,,,,,,,
429,0.00930786,-0.145416,0.0209045,-0.0109863,-0.115967,0.135193,0.0520325,-0.0169373,0.0447083,,,,,,,,,,,,,,,,,,,,,,,,,,,,,,,,,,,,,,,,,
429,0.0184631,-0.144043,0.0305176,0.039978,-0.055542,0.00930786,0.10376,0.00778198,0.0505066,,,,,,,,,,,,,,,,,,,,,,,,,,,,,,,,,,,,,,,,,
429,0.0265503,-0.130005,0.0256348,0.0167847,0.00350952,-0.0384521,0.103149,0.000915527,0.0605774,,,,,,,,,,,,,,,,,,,,,,,,,,,,,,,,,,,,,,,,,
429,-0.0132751,-0.150299,0.00457764,0.0114441,-0.00762939,-0.134277,0.0523376,0.0411987,0.0567627,,,,,,,,,,,,,,,,,,,,,,,,,,,,,,,,,,,,,,,,,
429,0.0424194,-0.141907,0.00137329,-0.0291443,0.0495911,-0.0524902,-0.0193787,0.0367737,0.0837708,,,,,,,,,,,,,,,,,,,,,,,,,,,,,,,,,,,,,,,,,
429,0.0189209,-0.139008,0.040741,0.0125122,0.018158,-0.0830078,-0.00366211,0.0408936,0.0523376,,,,,,,,,,,,,,,,,,,,,,,,,,,,,,,,,,,,,,,,,
429,0.0393677,-0.120392,-0.000305176,-0.0167847,-0.0128174,0.0149536,-0.0761414,0.0233459,0.0572205,,,,,,,,,,,,,,,,,,,,,,,,,,,,,,,,,,,,,,,,,
429,0.0372314,-0.122681,0.0125122,-0.0134277,-0.0241089,-0.000305176,-0.0769043,-0.0143433,0.0462341,,,,,,,,,,,,,,,,,,,,,,,,,,,,,,,,,,,,,,,,,
429,0.0280762,-0.116882,0.0234985,-0.0195312,-0.0289917,0.0730896,-0.0964355,-0.0180054,0.0352478,,,,,,,,,,,,,,,,,,,,,,,,,,,,,,,,,,,,,,,,,
430,0.0204468,-0.121765,0.0120544,0.025177,0.0248718,0.0482178,-0.0717163,-0.015564,0.0714111,,,,,,,,,,,,,,,,,,,,,,,,,,,,,,,,,,,,,,,,,
430,0.0418091,-0.119781,0.000457764,0.0259399,0.0662231,0.0138855,-0.11795,-0.0358582,0.0462341,,,,,,,,,,,,,,,,,,,,,,,,,,,,,,,,,,,,,,,,,
430,0.0294495,-0.0616455,0.0288391,0.0480652,0.0410461,0.0404358,-0.0500488,-0.0489807,0.0604248,,,,,,,,,,,,,,,,,,,,,,,,,,,,,,,,,,,,,,,,,
430,0.020752,-0.0460815,-0.0161743,0.0306702,0.0231934,0.0688171,-0.015564,-0.0401306,0.045166,,,,,,,,,,,,,,,,,,,,,,,,,,,,,,,,,,,,,,,,,
430,-0.0123596,-0.0698853,0.00869751,0.0285339,-0.0953674,-0.00274658,0.0286865,-0.00747681,0.0648499,,,,,,,,,,,,,,,,,,,,,,,,,,,,,,,,,,,,,,,,,
430,0.0192261,-0.0544739,0.0183105,0.0268555,-0.0460815,-0.0614929,0.0506592,0.0012207,0.0698853,,,,,,,,,,,,,,,,,,,,,,,,,,,,,,,,,,,,,,,,,
430,0.00549316,-0.0527954,0.0320435,0.0344849,0.00320435,-0.0926208,0.13382,-0.0131226,0.0640869,,,,,,,,,,,,,,,,,,,,,,,,,,,,,,,,,,,,,,,,,
430,0.0114441,-0.0637817,-0.00579834,-0.0146484,-0.0170898,-0.0289917,0.121002,0.0012207,0.0956726,,,,,,,,,,,,,,,,,,,,,,,,,,,,,,,,,,,,,,,,,
430,0.0166321,-0.0479126,0.022583,-0.020752,-0.0596619,0.0996399,0.0666809,0.00228882,0.0483704,,,,,,,,,,,,,,,,,,,,,,,,,,,,,,,,,,,,,,,,,
430,0.0335693,-0.0672913,-0.00579834,-0.000305176,-0.0308228,0.17395,-0.010376,0.000305176,0.0874329,,,,,,,,,,,,,,,,,,,,,,,,,,,,,,,,,,,,,,,,,
431,-0.00991821,-0.0558472,0.00518799,-0.00198364,-0.0379944,0.115204,-0.00152588,0.00610352,0.0759888,,,,,,,,,,,,,,,,,,,,,,,,,,,,,,,,,,,,,,,,,
431,0.0515747,-0.0421143,-0.0184631,-0.0617981,0.0115967,0.145569,0.0740051,0.0227356,0.0799561,,,,,,,,,,,,,,,,,,,,,,,,,,,,,,,,,,,,,,,,,
431,0.0265503,-0.0476074,0.0114441,-0.00930786,-0.0605774,0.0344849,0.189362,0.00457764,0.0532532,,,,,,,,,,,,,,,,,,,,,,,,,,,,,,,,,,,,,,,,,
431,0.0495911,-0.0450134,-0.0254822,0.0276184,-0.0120544,-0.0364685,0.126343,0.0119019,0.0923157,,,,,,,,,,,,,,,,,,,,,,,,,,,,,,,,,,,,,,,,,
431,0.0291443,-0.0340271,0.0202942,0.0296021,-0.0535583,-0.0468445,0.114136,-0.000915527,0.065918,,,,,,,,,,,,,,,,,,,,,,,,,,,,,,,,,,,,,,,,,
431,0.037384,-0.0558472,-0.0389099,0.025177,-0.00854492,0.0387573,0.104523,0.00518799,0.0485229,,,,,,,,,,,,,,,,,,,,,,,,,,,,,,,,,,,,,,,,,
431,-0.00854492,-0.0540161,0.0221252,0.0468445,0.120087,0.0654602,0.114746,-0.0115967,0.0398254,,,,,,,,,,,,,,,,,,,,,,,,,,,,,,,,,,,,,,,,,
431,-0.00335693,-0.032959,0.00244141,0.037384,0.0524902,0.0340271,0.0746155,0.0442505,0.0813293,,,,,,,,,,,,,,,,,,,,,,,,,,,,,,,,,,,,,,,,,
431,-0.019989,0.00579834,0.0282288,-0.0111389,-0.087738,-0.0198364,0.0617981,0.0325012,0.0749207,,,,,,,,,,,,,,,,,,,,,,,,,,,,,,,,,,,,,,,,,
431,0.00350952,0.00930786,-0.00259399,-0.0102234,-0.0514221,-0.0601196,-0.0358582,0.0283813,0.0524902,,,,,,,,,,,,,,,,,,,,,,,,,,,,,,,,,,,,,,,,,
432,-0.0166321,0.030365,0.0166321,-0.0038147,-0.0588989,-0.10788,-0.142975,0.0219727,0.0238037,,,,,,,,,,,,,,,,,,,,,,,,,,,,,,,,,,,,,,,,,
432,0.0236511,-0.00320435,-0.0166321,0.0218201,-0.0590515,-0.0692749,-0.223541,0.0366211,0.0372314,,,,,,,,,,,,,,,,,,,,,,,,,,,,,,,,,,,,,,,,,
432,0.0198364,0.0257874,0.00335693,0.0308228,-0.0378418,-0.0180054,-0.183105,0.0500488,0.0088501,,,,,,,,,,,,,,,,,,,,,,,,,,,,,,,,,,,,,,,,,
432,0.0244141,-0.00534058,-0.0212097,0.0219727,0.0691223,0.0698853,-0.179138,0.0384521,0.0331116,,,,,,,,,,,,,,,,,,,,,,,,,,,,,,,,,,,,,,,,,
432,0.0143433,0.0289917,0.000305176,0.0265503,0.0442505,0.0489807,-0.0679016,-0.00915527,0.0288391,,,,,,,,,,,,,,,,,,,,,,,,,,,,,,,,,,,,,,,,,
432,0.0123596,0.0115967,-0.0115967,0.0386047,0.0157166,0.00411987,0.153351,0.00427246,0.0375366,,,,,,,,,,,,,,,,,,,,,,,,,,,,,,,,,,,,,,,,,
432,-0.0256348,0.00488281,0.0201416,0.00747681,-0.0126648,-0.00732422,0.248718,-0.00167847,0.0157166,,,,,,,,,,,,,,,,,,,,,,,,,,,,,,,,,,,,,,,,,
432,0.0271606,0.0402832,-0.0144958,-0.043335,0.0233459,0.0427246,0.105133,-0.00640869,0.0341797,,,,,,,,,,,,,,,,,,,,,,,,,,,,,,,,,,,,,,,,,
432,-0.00793457,0.0564575,-0.00762939,-0.00946045,0.027771,0.00579834,-0.0193787,0.0364685,0.0460815,,,,,,,,,,,,,,,,,,,,,,,,,,,,,,,,,,,,,,,,,
432,0.0102234,0.102081,-0.0279236,-0.0364685,0.052948,0.0549316,-0.0500488,0.00350952,0.0291443,,,,,,,,,,,,,,,,,,,,,,,,,,,,,,,,,,,,,,,,,
433,-0.00335693,0.0796509,-0.0221252,0.00610352,0.0149536,-0.0315857,-0.0138855,0,0.0289917,,,,,,,,,,,,,,,,,,,,,,,,,,,,,,,,,,,,,,,,,
433,-0.00152588,0.113983,-0.000915527,-0.0228882,-0.0698853,-0.0274658,0.0257874,0.0102234,0.0357056,,,,,,,,,,,,,,,,,,,,,,,,,,,,,,,,,,,,,,,,,
433,0.0190735,0.0413513,-0.0202942,0.0239563,-0.0790405,-0.0482178,-0.0544739,0.0216675,0.0479126,,,,,,,,,,,,,,,,,,,,,,,,,,,,,,,,,,,,,,,,,
433,-0.00930786,0.0294495,-0.00488281,0.00305176,-0.0672913,0.0274658,-0.019989,-0.0172424,0.00701904,,,,,,,,,,,,,,,,,,,,,,,,,,,,,,,,,,,,,,,,,
433,0.00946045,-0.032959,-0.0256348,0.0271606,0.00961304,-0.0157166,-0.0296021,0.0202942,0.0357056,,,,,,,,,,,,,,,,,,,,,,,,,,,,,,,,,,,,,,,,,
433,0.0062561,-0.0683594,-0.0309753,0.0202942,0.00137329,-0.0492859,0.0163269,-0.0190735,0.0186157,,,,,,,,,,,,,,,,,,,,,,,,,,,,,,,,,,,,,,,,,
433,0.0140381,-0.0559998,-0.0187683,0.015564,0.0973511,-0.0448608,0.0650024,0.0282288,0.0205994,,,,,,,,,,,,,,,,,,,,,,,,,,,,,,,,,,,,,,,,,
433,0.0149536,-0.0770569,-0.0038147,0.0196838,0.0740051,-0.0518799,0.141296,0.0244141,-0.0210571,,,,,,,,,,,,,,,,,,,,,,,,,,,,,,,,,,,,,,,,,
433,0.0421143,-0.0741577,-0.0170898,0.0120544,0.0939941,-0.0262451,0.148773,0.0260925,0.0366211,,,,,,,,,,,,,,,,,,,,,,,,,,,,,,,,,,,,,,,,,
433,0.0337219,-0.0520325,0.00305176,0.0247192,0.0535583,-0.00518799,0.0671387,0.014801,0.0125122,,,,,,,,,,,,,,,,,,,,,,,,,,,,,,,,,,,,,,,,,
434,0.0613403,-0.0428772,-0.020752,0.0106812,-0.032959,0.0564575,-0.0343323,0.00823975,-0.0291443,,,,,,,,,,,,,,,,,,,,,,,,,,,,,,,,,,,,,,,,,
434,0.0242615,-0.00198364,-0.00305176,0.040741,-0.0354004,0.0216675,-0.0975037,0.0123596,0.0221252,,,,,,,,,,,,,,,,,,,,,,,,,,,,,,,,,,,,,,,,,
434,0.0656128,0.100555,-0.0111389,0.0111389,0.0125122,0.0802612,-0.0564575,0.0213623,-0.00411987,,,,,,,,,,,,,,,,,,,,,,,,,,,,,,,,,,,,,,,,,
434,0.0349426,0.0947571,0.00228882,0.0392151,0.0331116,0.0761414,-0.0715637,0.037384,0.0247192,,,,,,,,,,,,,,,,,,,,,,,,,,,,,,,,,,,,,,,,,
434,0.00137329,0.142212,-0.0012207,0.00473022,-0.0378418,0.0364685,0.0930786,0.0123596,-0.0128174,,,,,,,,,,,,,,,,,,,,,,,,,,,,,,,,,,,,,,,,,
434,0.0050354,0.0775146,-0.0537109,0.0283813,-0.0238037,0.00915527,0.214233,0.0296021,0.0306702,,,,,,,,,,,,,,,,,,,,,,,,,,,,,,,,,,,,,,,,,
434,-0.0212097,0.057373,-0.0161743,0.027771,0.0141907,0.0112915,0.194092,0.0146484,-0.0259399,,,,,,,,,,,,,,,,,,,,,,,,,,,,,,,,,,,,,,,,,
434,0.0305176,0.03479,-0.0349426,0.0088501,0.12207,-0.0149536,-0.0172424,-0.00717163,0.0128174,,,,,,,,,,,,,,,,,,,,,,,,,,,,,,,,,,,,,,,,,
434,-0.0106812,0.0378418,-0.000915527,0.0115967,0.195465,-0.0114441,-0.104523,0.0202942,0.0111389,,,,,,,,,,,,,,,,,,,,,,,,,,,,,,,,,,,,,,,,,
434,-0.00518799,0.0387573,-0.0364685,-0.0392151,0.328674,0.071106,-0.133057,0.0088501,-0.0114441,,,,,,,,,,,,,,,,,,,,,,,,,,,,,,,,,,,,,,,,,
435,-0.0160217,0.0437927,-0.00137329,-0.0062561,0.301666,0.0823975,-0.0695801,0.0117493,0.0160217,,,,,,,,,,,,,,,,,,,,,,,,,,,,,,,,,,,,,,,,,
435,0.0115967,0.0700378,-0.0286865,0.00549316,0.167694,0.0950623,0.00793457,-0.0158691,-0.0144958,,,,,,,,,,,,,,,,,,,,,,,,,,,,,,,,,,,,,,,,,
435,-0.0154114,0.022583,-0.0500488,0.0163269,0.0549316,0.00305176,0.111847,0.0268555,0.0209045,,,,,,,,,,,,,,,,,,,,,,,,,,,,,,,,,,,,,,,,,
435,-0.0112915,0.0253296,-0.0169373,-0.012207,-0.0311279,-0.00137329,0.121155,-0.0241089,-0.0123596,,,,,,,,,,,,,,,,,,,,,,,,,,,,,,,,,,,,,,,,,
435,0.00946045,0.0128174,-0.0627136,0.0151062,-0.00823975,-0.00366211,0.108032,-0.00167847,-0.00854492,,,,,,,,,,,,,,,,,,,,,,,,,,,,,,,,,,,,,,,,,
435,-0.0228882,0.0256348,0.000305176,-0.0100708,-0.01297,-0.00289917,0.0308228,-0.00305176,-0.0109863,,,,,,,,,,,,,,,,,,,,,,,,,,,,,,,,,,,,,,,,,
435,-0.0289917,0.0366211,-0.025177,0.0189209,-0.0245667,-0.00915527,-0.0921631,0.0189209,-0.000152588,,,,,,,,,,,,,,,,,,,,,,,,,,,,,,,,,,,,,,,,,
435,-0.0218201,0.0479126,-0.0297546,0.025177,-0.169067,0.0205994,-0.0694275,0.0115967,-0.0378418,,,,,,,,,,,,,,,,,,,,,,,,,,,,,,,,,,,,,,,,,
435,0.00961304,0.0584412,-0.038147,0.0233459,-0.157471,0.0115967,-0.085907,0.0311279,-0.000610352,,,,,,,,,,,,,,,,,,,,,,,,,,,,,,,,,,,,,,,,,
435,0.0283813,0.0305176,-0.0209045,0.0379944,-0.143738,-0.0463867,-0.0444031,0.020752,-0.0378418,,,,,,,,,,,,,,,,,,,,,,,,,,,,,,,,,,,,,,,,,
436,0.0323486,0.0440979,-0.037384,0.0144958,-0.0801086,-0.0686646,-0.0453186,0.00961304,-0.00656128,,,,,,,,,,,,,,,,,,,,,,,,,,,,,,,,,,,,,,,,,
436,0.0230408,-0.00152588,-0.0190735,0.00549316,-0.0570679,-0.0738525,-0.0370789,0.0228882,-0.0344849,,,,,,,,,,,,,,,,,,,,,,,,,,,,,,,,,,,,,,,,,
436,0.0646973,0.0370789,-0.0398254,-0.0524902,0.0482178,-0.0366211,-0.0740051,0.00167847,-0.0444031,,,,,,,,,,,,,,,,,,,,,,,,,,,,,,,,,,,,,,,,,
436,0.0164795,0.0256348,-0.0170898,-0.0250244,0.13855,-0.00640869,-0.151062,0.0334167,-0.00610352,,,,,,,,,,,,,,,,,,,,,,,,,,,,,,,,,,,,,,,,,
436,0.022583,0.0730896,-0.040741,-0.0180054,0.182495,0.0436401,-0.167389,-0.0154114,-0.025177,,,,,,,,,,,,,,,,,,,,,,,,,,,,,,,,,,,,,,,,,
436,0.0280762,0.0376892,-0.03479,0.0050354,0.194855,0.0556946,-0.136414,0.0436401,0.00839233,,,,,,,,,,,,,,,,,,,,,,,,,,,,,,,,,,,,,,,,,
436,0.00534058,0.071106,-0.0170898,-0.0169373,0.0865173,0.093689,-0.0172424,-0.00320435,-0.0132751,,,,,,,,,,,,,,,,,,,,,,,,,,,,,,,,,,,,,,,,,
436,-0.00595093,0.0146484,-0.0263977,0.0502014,0.0309753,0.0613403,0.153656,0.045166,0.015564,,,,,,,,,,,,,,,,,,,,,,,,,,,,,,,,,,,,,,,,,
436,0.0135803,0.00167847,-0.0286865,0.0230408,0.00411987,0.108795,0.218658,0.0202942,-0.0143433,,,,,,,,,,,,,,,,,,,,,,,,,,,,,,,,,,,,,,,,,
436,0.014801,-0.0480652,-0.0260925,0.0358582,-0.00274658,0.141296,0.176544,0.0323486,0.00854492,,,,,,,,,,,,,,,,,,,,,,,,,,,,,,,,,,,,,,,,,
437,-0.0187683,-0.0593567,-0.0198364,0.0483704,-0.0646973,0.0830078,0.162048,0.0424194,0.0012207,,,,,,,,,,,,,,,,,,,,,,,,,,,,,,,,,,,,,,,,,
437,0.00442505,-0.0572205,-0.0325012,-0.0189209,-0.0543213,0.0505066,0.091095,-0.00610352,0.0105286,,,,,,,,,,,,,,,,,,,,,,,,,,,,,,,,,,,,,,,,,
437,0.000305176,-0.0292969,-0.0241089,-0.0115967,-0.149078,0.0416565,0.0656128,0.0538635,-0.0123596,,,,,,,,,,,,,,,,,,,,,,,,,,,,,,,,,,,,,,,,,
437,0.0177002,-0.0102234,-0.0224304,-0.03479,-0.165253,0.0482178,0.0233459,0.010376,-0.0160217,,,,,,,,,,,,,,,,,,,,,,,,,,,,,,,,,,,,,,,,,
437,0.00335693,-0.0563049,-0.0274658,0.00717163,-0.183868,-0.00976562,-0.0297546,0.0471497,0.00747681,,,,,,,,,,,,,,,,,,,,,,,,,,,,,,,,,,,,,,,,,
437,0.0112915,-0.0141907,-0.0131226,0.0143433,-0.126953,0.025177,-0.00320435,0.0149536,-0.0106812,,,,,,,,,,,,,,,,,,,,,,,,,,,,,,,,,,,,,,,,,
437,0.0483704,-0.0309753,-0.0114441,0.0674438,-0.0248718,-0.0434875,-0.0897217,0.0610352,0.0169373,,,,,,,,,,,,,,,,,,,,,,,,,,,,,,,,,,,,,,,,,
437,-0.0135803,-0.00701904,-0.00350952,0.062561,0.0430298,-0.0267029,-0.070343,0.0238037,-0.00961304,,,,,,,,,,,,,,,,,,,,,,,,,,,,,,,,,,,,,,,,,
437,0.0279236,-0.0132751,-0.0515747,0.0617981,0.0759888,-0.106201,-0.037384,0.00823975,0.0038147,,,,,,,,,,,,,,,,,,,,,,,,,,,,,,,,,,,,,,,,,
437,-0.00137329,-0.027771,-0.0378418,0.0120544,0.0534058,-0.13031,0.0296021,0.0166321,-0.0296021,,,,,,,,,,,,,,,,,,,,,,,,,,,,,,,,,,,,,,,,,
438,0.0366211,-0.0326538,-0.0611877,0.0291443,0.0720215,-0.0538635,0.0834656,0.0138855,-0.00366211,,,,,,,,,,,,,,,,,,,,,,,,,,,,,,,,,,,,,,,,,
438,0.00198364,-0.0549316,-0.0111389,-0.00762939,-0.0038147,-0.0410461,0.0862122,0.0157166,-0.0120544,,,,,,,,,,,,,,,,,,,,,,,,,,,,,,,,,,,,,,,,,
438,0.0228882,0.00656128,-0.0312805,-0.0468445,-0.0471497,0.071106,0.0636292,0.0160217,0.00564575,,,,,,,,,,,,,,,,,,,,,,,,,,,,,,,,,,,,,,,,,
438,-0.0062561,0.0178528,-0.0288391,0.00656128,-0.0686646,-0.0358582,0.00320435,0.0462341,0.0128174,,,,,,,,,,,,,,,,,,,,,,,,,,,,,,,,,,,,,,,,,
438,0.0106812,0.0570679,-0.0151062,-0.0062561,-0.0506592,-0.085907,-0.120392,-0.0164795,0.00946045,,,,,,,,,,,,,,,,,,,,,,,,,,,,,,,,,,,,,,,,,
438,-0.0123596,0.0231934,-0.0138855,0.0289917,-0.017395,-0.0817871,-0.300598,0.0564575,0.0358582,,,,,,,,,,,,,,,,,,,,,,,,,,,,,,,,,,,,,,,,,
438,0.0126648,0.0779724,-0.018158,-0.00534058,-0.032959,-0.014801,-0.394287,0.0238037,0.0215149,,,,,,,,,,,,,,,,,,,,,,,,,,,,,,,,,,,,,,,,,
438,0.0312805,0.0386047,-0.0352478,0.0515747,-0.00671387,0.0378418,-0.451355,0.0367737,0.0244141,,,,,,,,,,,,,,,,,,,,,,,,,,,,,,,,,,,,,,,,,
438,-0.0177002,0.030365,-0.0265503,0.043335,0.0195312,0.0485229,-0.295563,0.00595093,0.0117493,,,,,,,,,,,,,,,,,,,,,,,,,,,,,,,,,,,,,,,,,
438,0.0352478,0.0198364,-0.0402832,0.0480652,0.0431824,-0.0250244,-0.0804138,0.0344849,0.027771,,,,,,,,,,,,,,,,,,,,,,,,,,,,,,,,,,,,,,,,,
439,-0.00167847,0.0314331,-0.00396729,0.0938416,0.000915527,-0.130615,0.230865,0.0289917,0.0132751,,,,,,,,,,,,,,,,,,,,,,,,,,,,,,,,,,,,,,,,,
439,0.0250244,0.0448608,-0.00930786,0.0297546,0.12558,-0.0897217,0.485535,0.0299072,0.019989,,,,,,,,,,,,,,,,,,,,,,,,,,,,,,,,,,,,,,,,,
439,0.00274658,0.0221252,-0.00274658,0.00717163,0.245972,0.0497437,0.493469,0.00991821,0.0178528,,,,,,,,,,,,,,,,,,,,,,,,,,,,,,,,,,,,,,,,,
439,0.0527954,0.0325012,-0.0286865,-0.0668335,0.246887,0.136414,0.253296,-0.00762939,0.00854492,,,,,,,,,,,,,,,,,,,,,,,,,,,,,,,,,,,,,,,,,
439,0.0105286,-0.00854492,-0.0151062,-0.0515747,0.156708,0.0953674,0.139313,0.037384,0.0250244,,,,,,,,,,,,,,,,,,,,,,,,,,,,,,,,,,,,,,,,,
439,0.0247192,0.0178528,-0.0201416,-0.0598145,0.106201,0.125122,0.137939,0.0254822,0.00518799,,,,,,,,,,,,,,,,,,,,,,,,,,,,,,,,,,,,,,,,,
439,-0.00640869,-0.000762939,0.00152588,0.000457764,0.0520325,0.0437927,0.124359,0.0297546,0.0364685,,,,,,,,,,,,,,,,,,,,,,,,,,,,,,,,,,,,,,,,,
439,0.0238037,0.0593567,-0.00778198,0.0210571,-0.00534058,0.0976562,0.140686,0.00671387,0.0283813,,,,,,,,,,,,,,,,,,,,,,,,,,,,,,,,,,,,,,,,,
439,0.015564,0.0274658,-0.012207,0.0238037,-0.0189209,0.184326,0.153961,0.0160217,-0.000762939,,,,,,,,,,,,,,,,,,,,,,,,,,,,,,,,,,,,,,,,,
439,0.0296021,0.0592041,-0.00946045,-0.0354004,-0.078125,0.218048,0.113068,-0.0062561,0.00808716,,,,,,,,,,,,,,,,,,,,,,,,,,,,,,,,,,,,,,,,,
440,-0.000457764,0.0424194,-0.0106812,0.0134277,-0.159912,0.129852,0.0469971,0.00198364,0.00534058,,,,,,,,,,,,,,,,,,,,,,,,,,,,,,,,,,,,,,,,,
440,0.0282288,0.0524902,-0.0180054,-0.0115967,-0.0912476,0.124054,-0.00839233,-0.0210571,0.0117493,,,,,,,,,,,,,,,,,,,,,,,,,,,,,,,,,,,,,,,,,
440,-0.00167847,0.0212097,-0.00579834,0.038147,-0.0193787,-0.0012207,-0.0428772,-0.00991821,0.00640869,,,,,,,,,,,,,,,,,,,,,,,,,,,,,,,,,,,,,,,,,
440,0.00869751,0.0733948,0.0228882,-0.0152588,0.019989,-0.0727844,-0.0921631,-0.00442505,0.00534058,,,,,,,,,,,,,,,,,,,,,,,,,,,,,,,,,,,,,,,,,
440,-0.00167847,0.129547,0.0267029,0.0263977,-0.0413513,-0.152588,-0.0697327,-0.010376,0.0279236,,,,,,,,,,,,,,,,,,,,,,,,,,,,,,,,,,,,,,,,,
440,0.0430298,0.148773,0.00198364,0.00991821,-0.100708,-0.0566101,-0.0564575,-0.0447083,0.0369263,,,,,,,,,,,,,,,,,,,,,,,,,,,,,,,,,,,,,,,,,
440,0.0230408,0.0999451,-0.00595093,0.0332642,-0.101776,-0.03479,-0.0306702,-0.0120544,0.0332642,,,,,,,,,,,,,,,,,,,,,,,,,,,,,,,,,,,,,,,,,
440,0.0564575,0.0837708,-0.0134277,-0.00106812,-0.0128174,-0.015564,-0.0285339,-0.0180054,0.0292969,,,,,,,,,,,,,,,,,,,,,,,,,,,,,,,,,,,,,,,,,
440,-0.0115967,0.0306702,0.0430298,0.0297546,0.0175476,-0.105743,0.0193787,-0.0119019,0.0318909,,,,,,,,,,,,,,,,,,,,,,,,,,,,,,,,,,,,,,,,,
440,0.0196838,0.0119019,0.0296021,-0.00701904,0.0343323,-0.0717163,0.00579834,-0.0473022,0.0285339,,,,,,,,,,,,,,,,,,,,,,,,,,,,,,,,,,,,,,,,,
441,-0.0151062,-0.0234985,0.0140381,0.0328064,0.067749,-0.0846863,-0.0518799,0.00854492,0.0170898,,,,,,,,,,,,,,,,,,,,,,,,,,,,,,,,,,,,,,,,,
441,-0.0312805,0.00289917,0.0244141,-0.00732422,0.0216675,0.0125122,-0.078125,-0.0466919,0.012207,,,,,,,,,,,,,,,,,,,,,,,,,,,,,,,,,,,,,,,,,
441,0.00366211,-0.0146484,0.01297,0.0213623,-0.00137329,0.0431824,-0.103912,-0.0205994,0.0248718,,,,,,,,,,,,,,,,,,,,,,,,,,,,,,,,,,,,,,,,,
441,0.00198364,0.0117493,0.0280762,0.00686646,-0.0558472,0.0733948,-0.0894165,-0.0125122,-0.00305176,,,,,,,,,,,,,,,,,,,,,,,,,,,,,,,,,,,,,,,,,
441,0.0245667,0.0250244,0.0184631,0.0340271,0.0294495,0.0704956,-0.0889587,0.0195312,0.0131226,,,,,,,,,,,,,,,,,,,,,,,,,,,,,,,,,,,,,,,,,
441,-0.0170898,0.0427246,0.0468445,0.0300598,0.0444031,0.00427246,-0.0840759,-0.0242615,0.00228882,,,,,,,,,,,,,,,,,,,,,,,,,,,,,,,,,,,,,,,,,
441,0.0216675,0.0584412,0.0204468,-0.0411987,0.141144,-0.0178528,-0.104065,-0.0152588,0.0193787,,,,,,,,,,,,,,,,,,,,,,,,,,,,,,,,,,,,,,,,,
441,0.00762939,0.050354,0.0537109,-0.0119019,0.139008,-0.078125,0.0274658,-0.0215149,0.0175476,,,,,,,,,,,,,,,,,,,,,,,,,,,,,,,,,,,,,,,,,
441,0.0262451,0.087738,0.0204468,-0.0135803,0.146637,0.022583,0.068512,-0.0349426,0.0183105,,,,,,,,,,,,,,,,,,,,,,,,,,,,,,,,,,,,,,,,,
441,0.018158,0.0341797,0.0286865,0.00991821,0.0534058,0.0546265,0.100098,0.00488281,0.0167847,,,,,,,,,,,,,,,,,,,,,,,,,,,,,,,,,,,,,,,,,
442,0.0193787,0.083313,0.0141907,-0.00274658,-0.0463867,-0.00686646,0.173645,-0.0140381,0.0109863,,,,,,,,,,,,,,,,,,,,,,,,,,,,,,,,,,,,,,,,,
442,0.00686646,0.0535583,0.0315857,0.0611877,-0.088501,-0.107727,0.210876,0.00198364,0.0128174,,,,,,,,,,,,,,,,,,,,,,,,,,,,,,,,,,,,,,,,,
442,0.014801,0.0663757,0.015564,-0.0167847,-0.112457,-0.0334167,0.175934,-0.0465393,-0.00854492,,,,,,,,,,,,,,,,,,,,,,,,,,,,,,,,,,,,,,,,,
442,0.0210571,0.0547791,0.0187683,-0.0419617,-0.0320435,0.0315857,0.124207,-0.00701904,0.0210571,,,,,,,,,,,,,,,,,,,,,,,,,,,,,,,,,,,,,,,,,
442,0.00350952,0.0747681,0.0498962,-0.0144958,-0.0465393,0.0862122,0.0679016,-0.0186157,-0.00366211,,,,,,,,,,,,,,,,,,,,,,,,,,,,,,,,,,,,,,,,,
442,0.0166321,0.0852966,0.0292969,-0.0262451,0.0105286,0.0517273,0.0244141,0.00762939,0.0427246,,,,,,,,,,,,,,,,,,,,,,,,,,,,,,,,,,,,,,,,,
442,0.0250244,0.106659,0.0645447,0.00793457,-0.0244141,-0.00961304,0.0317383,-0.0178528,0.000305176,,,,,,,,,,,,,,,,,,,,,,,,,,,,,,,,,,,,,,,,,
442,0.0213623,0.112915,0.0169373,-0.0190735,-0.00854492,-0.0050354,-0.0283813,0.00289917,0.0291443,,,,,,,,,,,,,,,,,,,,,,,,,,,,,,,,,,,,,,,,,
442,-0.010376,0.127563,0.0515747,0.0210571,-0.0308228,-0.0428772,-0.055542,-0.00488281,0.0123596,,,,,,,,,,,,,,,,,,,,,,,,,,,,,,,,,,,,,,,,,
442,-0.000915527,0.133057,0.0062561,-0.00747681,-0.0138855,-0.0297546,-0.0190735,-0.0312805,-0.0274658,,,,,,,,,,,,,,,,,,,,,,,,,,,,,,,,,,,,,,,,,
443,0.00457764,0.101013,0.0415039,0.0210571,-0.0636292,0.0222778,-0.0289917,0.00473022,0.0166321,,,,,,,,,,,,,,,,,,,,,,,,,,,,,,,,,,,,,,,,,
443,0.0152588,0.116577,0.0230408,0.0291443,-0.0419617,0.0132751,0.00335693,-0.0141907,-0.0140381,,,,,,,,,,,,,,,,,,,,,,,,,,,,,,,,,,,,,,,,,
443,0.012207,0.0740051,0.0280762,0.0842285,-0.00427246,-0.0489807,-0.00717163,0.0195312,0.0187683,,,,,,,,,,,,,,,,,,,,,,,,,,,,,,,,,,,,,,,,,
443,0.014801,0.127869,0.04776,0.0389099,0.0302124,-0.0410461,0.0117493,-0.0257874,0.0132751,,,,,,,,,,,,,,,,,,,,,,,,,,,,,,,,,,,,,,,,,
443,0.043335,0.0744629,0.0294495,0.0401306,0.0804138,-0.030365,-0.0190735,0.0183105,0.0157166,,,,,,,,,,,,,,,,,,,,,,,,,,,,,,,,,,,,,,,,,
443,0.0143433,0.112305,0.0512695,0.0439453,0.0314331,0.0253296,-0.0222778,-0.0120544,-0.0170898,,,,,,,,,,,,,,,,,,,,,,,,,,,,,,,,,,,,,,,,,
443,0.0408936,0.0622559,0.018158,0.0180054,0.06073,0.0588989,-0.0454712,-0.00823975,0.0201416,,,,,,,,,,,,,,,,,,,,,,,,,,,,,,,,,,,,,,,,,
443,0.00152588,0.0843811,0.0349426,0.0241089,-0.0364685,0.042572,-0.0428772,-0.0340271,0.0134277,,,,,,,,,,,,,,,,,,,,,,,,,,,,,,,,,,,,,,,,,
443,0.0152588,0.0961304,0.00488281,-0.0131226,0.0215149,0.03479,-0.0650024,-0.00778198,-0.0151062,,,,,,,,,,,,,,,,,,,,,,,,,,,,,,,,,,,,,,,,,
443,-0.0387573,0.0968933,0.0424194,-0.0260925,0.0698853,-0.000305176,-0.0527954,-0.00488281,-0.00305176,,,,,,,,,,,,,,,,,,,,,,,,,,,,,,,,,,,,,,,,,
444,0.0123596,0.0891113,-0.00579834,-0.0167847,0.118866,0.0370789,-0.0325012,0.00686646,-0.0195312,,,,,,,,,,,,,,,,,,,,,,,,,,,,,,,,,,,,,,,,,
444,-0.0102234,0.0741577,0.0335693,0.0259399,0.0975037,0.0439453,-0.00427246,-0.00137329,-0.00991821,,,,,,,,,,,,,,,,,,,,,,,,,,,,,,,,,,,,,,,,,
444,0.0239563,0.0834656,0.0564575,-0.00289917,0.103149,0.0488281,-0.00640869,-0.000152588,-0.0241089,,,,,,,,,,,,,,,,,,,,,,,,,,,,,,,,,,,,,,,,,
444,0.020752,0.045929,-0.00610352,0.0166321,0.0816345,0.0189209,0.00137329,0.0296021,0.039978,,,,,,,,,,,,,,,,,,,,,,,,,,,,,,,,,,,,,,,,,
444,0.000305176,0.085144,0.0410461,0.0062561,0.0424194,0.00427246,0.0526428,0.0106812,-0.0143433,,,,,,,,,,,,,,,,,,,,,,,,,,,,,,,,,,,,,,,,,
444,0.00518799,0.0543213,0.0144958,0.0363159,0.0268555,-0.0219727,-0.0111389,0.0088501,0.00244141,,,,,,,,,,,,,,,,,,,,,,,,,,,,,,,,,,,,,,,,,
444,-0.00518799,0.0791931,0.00442505,0.0106812,-0.0512695,-0.00457764,-0.0106812,-0.0143433,-0.00946045,,,,,,,,,,,,,,,,,,,,,,,,,,,,,,,,,,,,,,,,,
444,0.0308228,0.0616455,-0.000915527,0.000152588,0.0109863,0.0105286,-0.0302124,0.022583,0.00350952,,,,,,,,,,,,,,,,,,,,,,,,,,,,,,,,,,,,,,,,,
444,-0.000915527,0.0793457,0.0160217,0.032959,0.0637817,-0.000915527,-0.0257874,0.0012207,-0.018158,,,,,,,,,,,,,,,,,,,,,,,,,,,,,,,,,,,,,,,,,
444,0.0218201,0.0730896,0.0106812,0.00228882,0.0672913,0.0109863,0.000610352,-0.0186157,0.0012207,,,,,,,,,,,,,,,,,,,,,,,,,,,,,,,,,,,,,,,,,
445,0.00793457,0.0512695,0.00488281,0.0326538,0.0361633,0.00457764,0.0230408,0.01297,0.0296021,,,,,,,,,,,,,,,,,,,,,,,,,,,,,,,,,,,,,,,,,
445,0.0270081,0.0697327,0.0250244,-0.000457764,0.0363159,0.0117493,0.00946045,-0.00823975,0.00167847,,,,,,,,,,,,,,,,,,,,,,,,,,,,,,,,,,,,,,,,,
445,0.0158691,0.0559998,0.0466919,0.0166321,0.0621033,-0.00152588,-0.0012207,0.00198364,0.014801,,,,,,,,,,,,,,,,,,,,,,,,,,,,,,,,,,,,,,,,,
445,0.0205994,0.0610352,-0.00350952,-0.0260925,0.0363159,0.0257874,0.0134277,-0.00747681,-0.0180054,,,,,,,,,,,,,,,,,,,,,,,,,,,,,,,,,,,,,,,,,
445,-0.00579834,0.0387573,0.0112915,0.0195312,0.0169373,-0.00595093,0.00518799,0.0286865,0.0166321,,,,,,,,,,,,,,,,,,,,,,,,,,,,,,,,,,,,,,,,,
445,-0.0215149,0.0582886,0.0434875,-0.00488281,-0.0442505,0.00549316,0.0231934,-0.00579834,-0.0169373,,,,,,,,,,,,,,,,,,,,,,,,,,,,,,,,,,,,,,,,,
445,-0.00915527,0.0271606,-0.00106812,-0.00473022,-0.063324,-0.00564575,-0.0231934,-0.00137329,0.0138855,,,,,,,,,,,,,,,,,,,,,,,,,,,,,,,,,,,,,,,,,
445,-0.00183105,0.0561523,0.0177002,-0.0132751,-0.109863,0.00473022,0.00930786,0.018158,-0.000457764,,,,,,,,,,,,,,,,,,,,,,,,,,,,,,,,,,,,,,,,,
445,0.0396729,0.0428772,-0.0012207,-0.0193787,-0.0737,0.0172424,-0.0137329,-0.00457764,-0.00167847,,,,,,,,,,,,,,,,,,,,,,,,,,,,,,,,,,,,,,,,,
445,0.00396729,0.0415039,0.058136,0.0279236,-0.0413513,0.0294495,0.00839233,0.0227356,-0.00320435,,,,,,,,,,,,,,,,,,,,,,,,,,,,,,,,,,,,,,,,,
446,0.0315857,0.0428772,-0.00762939,-0.00244141,-0.0201416,0.0196838,-0.0105286,0.012207,-0.000457764,,,,,,,,,,,,,,,,,,,,,,,,,,,,,,,,,,,,,,,,,
446,0.0233459,0.0323486,0.0283813,0.0271606,-0.0402832,-0.00137329,-0.00778198,0.00488281,0.00183105,,,,,,,,,,,,,,,,,,,,,,,,,,,,,,,,,,,,,,,,,
446,0.00808716,0.0486755,-0.00228882,-0.0141907,0.0184631,0.0265503,-0.0050354,-0.0428772,-0.0198364,,,,,,,,,,,,,,,,,,,,,,,,,,,,,,,,,,,,,,,,,
446,0.00991821,0.0187683,-0.0231934,0.0346375,0.0112915,-0.00640869,-0.00274658,0.0161743,0.00106812,,,,,,,,,,,,,,,,,,,,,,,,,,,,,,,,,,,,,,,,,
446,-0.00305176,0.0508118,0.0325012,-0.0198364,-0.0270081,0.00244141,0.0289917,-0.0163269,-0.00717163,,,,,,,,,,,,,,,,,,,,,,,,,,,,,,,,,,,,,,,,,
446,0.00946045,0.00976562,0.000762939,0.0141907,-0.00411987,0.00137329,-0.0204468,0.0196838,0.0146484,,,,,,,,,,,,,,,,,,,,,,,,,,,,,,,,,,,,,,,,,
446,-0.0183105,0.0219727,0.0392151,0.00198364,0.0038147,0.0119019,0.00839233,0.00320435,0.00442505,,,,,,,,,,,,,,,,,,,,,,,,,,,,,,,,,,,,,,,,,
446,0.00869751,-0.0123596,-0.0201416,0.0163269,0.0453186,-0.00198364,-0.00793457,0.00274658,0.0219727,,,,,,,,,,,,,,,,,,,,,,,,,,,,,,,,,,,,,,,,,
446,0.00854492,-0.0263977,0.0265503,0.0265503,0.0442505,-0.0143433,-0.0125122,0.00183105,0.00656128,,,,,,,,,,,,,,,,,,,,,,,,,,,,,,,,,,,,,,,,,
446,0.0178528,0.0245667,0.0180054,-0.0050354,0.0584412,0.0198364,-0.0183105,-0.00671387,0.0106812,,,,,,,,,,,,,,,,,,,,,,,,,,,,,,,,,,,,,,,,,
447,0.0152588,-0.0785828,0.014801,0.0190735,0.0111389,0.00137329,0.010376,0.0222778,0.00320435,,,,,,,,,,,,,,,,,,,,,,,,,,,,,,,,,,,,,,,,,
447,0.00396729,-0.057373,0.0132751,-0.032959,0.0119019,0.0254822,0.0212097,-0.0167847,0.00579834,,,,,,,,,,,,,,,,,,,,,,,,,,,,,,,,,,,,,,,,,
447,0.00961304,-0.0558472,0.00518799,-0.0230408,0.0332642,0.0360107,0.00320435,0.00717163,0.018158,,,,,,,,,,,,,,,,,,,,,,,,,,,,,,,,,,,,,,,,,
447,0.00671387,-0.0759888,0.00244141,-0.0184631,0.0534058,0.0209045,0.00717163,0.00259399,-0.0254822,,,,,,,,,,,,,,,,,,,,,,,,,,,,,,,,,,,,,,,,,
447,0.0112915,-0.0996399,-0.000305176,0.0379944,0.0601196,-0.00915527,-0.0242615,0.018158,0.014801,,,,,,,,,,,,,,,,,,,,,,,,,,,,,,,,,,,,,,,,,
447,-0.0201416,-0.115814,0.0283813,0.0387573,0.0552368,-0.0245667,0.00167847,-0.00396729,-0.00579834,,,,,,,,,,,,,,,,,,,,,,,,,,,,,,,,,,,,,,,,,
447,-0.00366211,-0.129852,-0.00259399,-0.00198364,0.0959778,0.0274658,0.00244141,0.0460815,0.0299072,,,,,,,,,,,,,,,,,,,,,,,,,,,,,,,,,,,,,,,,,
447,-0.0119019,-0.0656128,-0.00442505,-0.00259399,0.0819397,0.0424194,0.0219727,0.00244141,-0.00991821,,,,,,,,,,,,,,,,,,,,,,,,,,,,,,,,,,,,,,,,,
447,0.0259399,-0.0675964,-0.0213623,-0.00930786,0.0668335,0.0570679,-0.0163269,0.0352478,0.01297,,,,,,,,,,,,,,,,,,,,,,,,,,,,,,,,,,,,,,,,,
447,-0.0212097,-0.0656128,0.0297546,0.00305176,0.00900269,0.0279236,-0.017395,0.00137329,-0.00534058,,,,,,,,,,,,,,,,,,,,,,,,,,,,,,,,,,,,,,,,,
448,-0.014801,-0.0712585,0.00518799,0.0198364,-0.0439453,0.0184631,0.010376,-0.000915527,-0.00259399,,,,,,,,,,,,,,,,,,,,,,,,,,,,,,,,,,,,,,,,,
448,-0.014801,-0.0863647,-0.00701904,0.0230408,-0.0384521,0.0177002,-0.00305176,0.0273132,0.00823975,,,,,,,,,,,,,,,,,,,,,,,,,,,,,,,,,,,,,,,,,
448,-0.00457764,-0.0646973,-0.00717163,0.0236511,-0.012207,-0.000457764,0.00961304,0.0138855,0.00106812,,,,,,,,,,,,,,,,,,,,,,,,,,,,,,,,,,,,,,,,,
448,0.00686646,-0.0648499,0.0131226,0.0463867,0.030365,-0.00534058,0.0126648,0.0302124,0.0239563,,,,,,,,,,,,,,,,,,,,,,,,,,,,,,,,,,,,,,,,,
448,-0.0105286,-0.0456238,0.00793457,0.0128174,0.0389099,0.00595093,0.0134277,0.0106812,-0.0242615,,,,,,,,,,,,,,,,,,,,,,,,,,,,,,,,,,,,,,,,,
448,0.0241089,-0.058136,-0.00747681,0.0167847,0.0439453,-0.0250244,-0.0242615,0.0502014,0.0115967,,,,,,,,,,,,,,,,,,,,,,,,,,,,,,,,,,,,,,,,,
448,-0.00167847,-0.0369263,0.0325012,0.0184631,0.00396729,-0.0357056,0.00167847,-0.00747681,0.00244141,,,,,,,,,,,,,,,,,,,,,,,,,,,,,,,,,,,,,,,,,
448,0.00701904,-0.0604248,0.00106812,0.0436401,0.0532532,-0.0143433,-0.0367737,0.0242615,0.0376892,,,,,,,,,,,,,,,,,,,,,,,,,,,,,,,,,,,,,,,,,
448,-0.0146484,-0.0415039,0.0312805,0.0302124,-0.0456238,-0.0143433,0.0167847,0.0279236,0.0190735,,,,,,,,,,,,,,,,,,,,,,,,,,,,,,,,,,,,,,,,,
448,0.00671387,-0.0436401,0.00579834,-0.0158691,-0.0149536,0.00427246,-0.0457764,-0.00656128,0.0209045,,,,,,,,,,,,,,,,,,,,,,,,,,,,,,,,,,,,,,,,,
449,-0.025177,-0.057373,0.010376,0.0297546,-0.0262451,-0.00244141,-0.000305176,0.0386047,0.00686646,,,,,,,,,,,,,,,,,,,,,,,,,,,,,,,,,,,,,,,,,
449,0.00717163,-0.0238037,-0.00396729,-0.0126648,-0.0157166,-0.00656128,-0.0227356,0.0312805,0.0238037,,,,,,,,,,,,,,,,,,,,,,,,,,,,,,,,,,,,,,,,,
449,0.00854492,-0.0486755,0.0244141,0.0320435,-0.0370789,-0.030365,-0.017395,0.0286865,0.0358582,,,,,,,,,,,,,,,,,,,,,,,,,,,,,,,,,,,,,,,,,
449,0.0183105,-0.0279236,0.0125122,-0.00320435,-0.0254822,0.0183105,0.00610352,-0.012207,0.012207,,,,,,,,,,,,,,,,,,,,,,,,,,,,,,,,,,,,,,,,,
449,0.0183105,-0.0712585,0.0012207,0.0302124,-0.0138855,-0.000152588,0.00549316,0.0419617,0.0427246,,,,,,,,,,,,,,,,,,,,,,,,,,,,,,,,,,,,,,,,,
449,0.00366211,-0.0569153,0.0215149,-0.000610352,-0.0424194,-0.00564575,0.0158691,-0.0062561,-0.00640869,,,,,,,,,,,,,,,,,,,,,,,,,,,,,,,,,,,,,,,,,
449,0.020752,-0.0769043,-0.000610352,0.0088501,0.00259399,-0.00488281,-0.0325012,0.0114441,0.0413513,,,,,,,,,,,,,,,,,,,,,,,,,,,,,,,,,,,,,,,,,
449,0.0326538,-0.0566101,0.00457764,-0.0212097,-0.00534058,-0.0114441,-0.0111389,-0.00534058,0.0109863,,,,,,,,,,,,,,,,,,,,,,,,,,,,,,,,,,,,,,,,,
449,0.0288391,-0.0204468,-0.0141907,-0.0209045,0.0436401,-0.00259399,-0.040741,0.0186157,0.0050354,,,,,,,,,,,,,,,,,,,,,,,,,,,,,,,,,,,,,,,,,
449,0.0125122,-0.0679016,-0.00854492,0.0170898,0.0190735,-0.0088501,0.000915527,0.00320435,0.0231934,,,,,,,,,,,,,,,,,,,,,,,,,,,,,,,,,,,,,,,,,
450,0.043335,-0.0285339,-0.00198364,-0.00106812,0.0765991,-0.00167847,-0.0117493,0.00579834,0.0274658,,,,,,,,,,,,,,,,,,,,,,,,,,,,,,,,,,,,,,,,,
450,0.00228882,-0.0389099,0.00289917,0.0184631,0.0744629,0.0106812,-0.0106812,0.0169373,0.0309753,,,,,,,,,,,,,,,,,,,,,,,,,,,,,,,,,,,,,,,,,
450,0.0450134,-0.0144958,-0.00778198,-0.010376,0.0590515,0.0317383,-0.000762939,0.0164795,0.0239563,,,,,,,,,,,,,,,,,,,,,,,,,,,,,,,,,,,,,,,,,
450,0.0135803,-0.0485229,0.0190735,0.0259399,0.0514221,-0.00900269,0.00900269,0.022583,0.0325012,,,,,,,,,,,,,,,,,,,,,,,,,,,,,,,,,,,,,,,,,
450,0.0219727,-0.00137329,0.0109863,0.00549316,0.0447083,0.0234985,0.0163269,0.0244141,-0.00579834,,,,,,,,,,,,,,,,,,,,,,,,,,,,,,,,,,,,,,,,,
450,0.0167847,-0.0315857,-0.00183105,0.0299072,0.0601196,-0.0154114,-0.0265503,0.0219727,0.0360107,,,,,,,,,,,,,,,,,,,,,,,,,,,,,,,,,,,,,,,,,
450,-0.000152588,0.00366211,0.00244141,0.0144958,0.0386047,0.00366211,0.0234985,-0.00564575,-0.0111389,,,,,,,,,,,,,,,,,,,,,,,,,,,,,,,,,,,,,,,,,
450,0.0364685,0.0112915,-0.0222778,0.0190735,0.0440979,0.00610352,-0.00442505,-0.0038147,0.0428772,,,,,,,,,,,,,,,,,,,,,,,,,,,,,,,,,,,,,,,,,
450,-0.0146484,0.0834656,0.00839233,0.00305176,-0.0201416,-0.00900269,-0.00167847,0.0202942,-0.0038147,,,,,,,,,,,,,,,,,,,,,,,,,,,,,,,,,,,,,,,,,
450,0.0357056,0.0895691,-0.0119019,0.00350952,0.00686646,0.0311279,-0.0215149,0.00930786,0.0123596,,,,,,,,,,,,,,,,,,,,,,,,,,,,,,,,,,,,,,,,,
451,0.0012207,0.0733948,0.00320435,0.00640869,-0.00564575,-0.0204468,0.0012207,0.00274658,0.0442505,,,,,,,,,,,,,,,,,,,,,,,,,,,,,,,,,,,,,,,,,
451,0.0163269,0.0396729,0.00854492,-0.00228882,0.00686646,-0.00717163,0.0120544,0.0338745,0.0169373,,,,,,,,,,,,,,,,,,,,,,,,,,,,,,,,,,,,,,,,,
451,0.0088501,-0.0143433,0.0062561,0.0242615,-0.00854492,-0.00747681,0.0169373,0.0285339,0.0244141,,,,,,,,,,,,,,,,,,,,,,,,,,,,,,,,,,,,,,,,,
451,0.0340271,-0.032196,0.00366211,-0.00808716,0.00808716,0.019989,-0.00534058,-0.015564,0.0202942,,,,,,,,,,,,,,,,,,,,,,,,,,,,,,,,,,,,,,,,,
451,0.0154114,-0.125732,-0.0088501,0.00808716,-0.00137329,0.0233459,0.0184631,0.0120544,0.032196,,,,,,,,,,,,,,,,,,,,,,,,,,,,,,,,,,,,,,,,,
451,-0.00366211,-0.122375,0.00747681,-0.00839233,0.0215149,0.000915527,0.0180054,0.00274658,-0.00167847,,,,,,,,,,,,,,,,,,,,,,,,,,,,,,,,,,,,,,,,,
451,-0.0140381,-0.140228,0.00686646,0.0170898,0.055542,-0.00579834,-0.0062561,0.00808716,0.0311279,,,,,,,,,,,,,,,,,,,,,,,,,,,,,,,,,,,,,,,,,
451,-0.0126648,-0.105896,0.0253296,0.00320435,0.00396729,0.0205994,0.0369263,-0.0202942,-0.00259399,,,,,,,,,,,,,,,,,,,,,,,,,,,,,,,,,,,,,,,,,
451,0.0239563,-0.04776,-0.0239563,0.0230408,0.045929,0.0196838,0.0128174,0.00900269,0.0271606,,,,,,,,,,,,,,,,,,,,,,,,,,,,,,,,,,,,,,,,,
451,-0.00411987,0.00442505,0.0245667,0.0578308,0.0112915,-0.000152588,0.0340271,0.00106812,0.00411987,,,,,,,,,,,,,,,,,,,,,,,,,,,,,,,,,,,,,,,,,
452,0.0175476,0.035553,-0.00213623,0.00854492,0.0602722,0.0297546,0.0062561,0.0158691,0.0112915,,,,,,,,,,,,,,,,,,,,,,,,,,,,,,,,,,,,,,,,,
452,-0.00335693,0.00244141,-0.0108337,0.0259399,0.0309753,-0.00869751,0.0221252,0.0221252,0.0213623,,,,,,,,,,,,,,,,,,,,,,,,,,,,,,,,,,,,,,,,,
452,0.00473022,0.0312805,0.014801,-0.00549316,0.0357056,0.0257874,0.0262451,0.00183105,-0.00640869,,,,,,,,,,,,,,,,,,,,,,,,,,,,,,,,,,,,,,,,,
452,0.00244141,-0.0236511,0.00411987,0.0131226,0.0375366,-0.00976562,-0.00183105,0.0177002,0.0166321,,,,,,,,,,,,,,,,,,,,,,,,,,,,,,,,,,,,,,,,,
452,-0.0108337,-0.0167847,0.00289917,-0.00900269,0.00106812,0.0215149,0.0364685,-0.0143433,-0.0160217,,,,,,,,,,,,,,,,,,,,,,,,,,,,,,,,,,,,,,,,,
452,-0.00183105,-0.0280762,-0.00305176,0.00686646,0.0306702,-0.00274658,0.00946045,-0.00595093,0.0247192,,,,,,,,,,,,,,,,,,,,,,,,,,,,,,,,,,,,,,,,,
452,0.000610352,-0.0230408,0.0254822,-0.0105286,-0.00930786,0.0160217,0.0350952,0.0088501,-0.0100708,,,,,,,,,,,,,,,,,,,,,,,,,,,,,,,,,,,,,,,,,
452,0.0117493,-0.0384521,0.00900269,0.0233459,0.00793457,0.0204468,0.0213623,0.0189209,-0.00167847,,,,,,,,,,,,,,,,,,,,,,,,,,,,,,,,,,,,,,,,,
452,-0.0221252,-0.0120544,0.0271606,0.00747681,-0.00839233,-0.00213623,0.0323486,-0.00564575,-0.0198364,,,,,,,,,,,,,,,,,,,,,,,,,,,,,,,,,,,,,,,,,
452,0.0209045,0.0273132,0.0160217,-0.0175476,-0.00183105,0.0137329,0.0088501,0.0361633,0.00457764,,,,,,,,,,,,,,,,,,,,,,,,,,,,,,,,,,,,,,,,,
453,-0.00991821,0.0212097,0.0253296,0.0392151,-0.0314331,-0.0143433,0.00823975,-0.000152588,-0.0271606,,,,,,,,,,,,,,,,,,,,,,,,,,,,,,,,,,,,,,,,,
453,0.0257874,0.043335,0.00183105,-0.00579834,0.00274658,0.0286865,-0.0100708,-0.0213623,-0.00808716,,,,,,,,,,,,,,,,,,,,,,,,,,,,,,,,,,,,,,,,,
453,0.0160217,0.0300598,0.00579834,0.0178528,0.0192261,-0.00320435,-0.000915527,0.00137329,0.0172424,,,,,,,,,,,,,,,,,,,,,,,,,,,,,,,,,,,,,,,,,
453,0.0312805,0.0744629,0.0204468,0.0193787,0.00900269,0.0100708,-0.00488281,-0.0137329,-0.0202942,,,,,,,,,,,,,,,,,,,,,,,,,,,,,,,,,,,,,,,,,
453,0.019989,0.0382996,-0.00778198,0.0117493,0.0205994,-0.010376,-0.0186157,0.0222778,0.0123596,,,,,,,,,,,,,,,,,,,,,,,,,,,,,,,,,,,,,,,,,
453,-0.00518799,0.0598145,0.0445557,-0.00656128,0.000610352,-0.00167847,0.0233459,0.00671387,0.00473022,,,,,,,,,,,,,,,,,,,,,,,,,,,,,,,,,,,,,,,,,
453,0.0563049,0.0256348,-0.00579834,0.0317383,0.0358582,-0.0227356,-0.00946045,-0.0119019,0.0154114,,,,,,,,,,,,,,,,,,,,,,,,,,,,,,,,,,,,,,,,,
453,-0.0038147,0.0405884,0.00595093,0.0306702,0.0190735,0.0170898,-0.00228882,-0.00701904,-0.0328064,,,,,,,,,,,,,,,,,,,,,,,,,,,,,,,,,,,,,,,,,
453,0.040741,0.0559998,0.0201416,-0.00747681,0.025177,0.0279236,-0.0244141,-0.0141907,0.0210571,,,,,,,,,,,,,,,,,,,,,,,,,,,,,,,,,,,,,,,,,
453,-0.00823975,0.00686646,0.0166321,0.0178528,0.0062561,-0.0271606,0.0125122,0.0227356,0.000457764,,,,,,,,,,,,,,,,,,,,,,,,,,,,,,,,,,,,,,,,,
454,0.0326538,0.0382996,-0.00305176,0.00473022,0.00869751,-0.000915527,0.0050354,-0.00915527,-0.00335693,,,,,,,,,,,,,,,,,,,,,,,,,,,,,,,,,,,,,,,,,
454,0.0285339,-0.000152588,-0.0012207,0.0175476,0.027771,0.0138855,-0.00900269,-0.00427246,0.0198364,,,,,,,,,,,,,,,,,,,,,,,,,,,,,,,,,,,,,,,,,
454,0.0241089,0.0291443,-0.0149536,-0.00183105,0.0161743,0.0268555,0.00579834,-0.0108337,0.00778198,,,,,,,,,,,,,,,,,,,,,,,,,,,,,,,,,,,,,,,,,
454,0.03479,0.00518799,0.00350952,0.0427246,0.0192261,0.0138855,-0.0350952,0.0267029,0.0178528,,,,,,,,,,,,,,,,,,,,,,,,,,,,,,,,,,,,,,,,,
454,0.00106812,0.0419617,0.00961304,-0.00854492,0.0169373,0.0158691,0.0038147,0.000762939,-0.0233459,,,,,,,,,,,,,,,,,,,,,,,,,,,,,,,,,,,,,,,,,
454,0.00762939,-0.0192261,-0.00564575,0.0201416,0.0411987,0.00244141,-0.0511169,0.0335693,0.0190735,,,,,,,,,,,,,,,,,,,,,,,,,,,,,,,,,,,,,,,,,
454,0.00823975,-0.0108337,0.0123596,0.0119019,0.0267029,-0.0222778,-0.0163269,-0.0137329,-0.0244141,,,,,,,,,,,,,,,,,,,,,,,,,,,,,,,,,,,,,,,,,
454,0.0178528,-0.00671387,-0.0259399,-0.000610352,0.0233459,-0.000305176,-0.0306702,0.0038147,-0.0126648,,,,,,,,,,,,,,,,,,,,,,,,,,,,,,,,,,,,,,,,,
454,0.000762939,-0.050354,-0.00350952,0.0421143,-0.00976562,0.00900269,-0.00854492,-0.00167847,-0.0134277,,,,,,,,,,,,,,,,,,,,,,,,,,,,,,,,,,,,,,,,,
454,0.043335,-0.0152588,-0.0186157,-0.0195312,0.0175476,0.0323486,-0.0131226,0.0192261,-0.00534058,,,,,,,,,,,,,,,,,,,,,,,,,,,,,,,,,,,,,,,,,
455,0.0135803,-0.0305176,0.0125122,0.0463867,-0.0144958,0.0204468,-0.0230408,0.0193787,0.00137329,,,,,,,,,,,,,,,,,,,,,,,,,,,,,,,,,,,,,,,,,
455,0.0317383,0.012207,-0.0204468,0.0012207,0.01297,0.0250244,-0.0114441,0.00976562,-0.0183105,,,,,,,,,,,,,,,,,,,,,,,,,,,,,,,,,,,,,,,,,
455,0.0154114,-0.0268555,-0.0050354,0.0296021,0.0234985,0.0108337,-0.0209045,0.0523376,0.0270081,,,,,,,,,,,,,,,,,,,,,,,,,,,,,,,,,,,,,,,,,
455,0.00244141,0.0216675,0.0160217,-0.014801,-0.00518799,0.00793457,0.0119019,0.015564,-0.0302124,,,,,,,,,,,,,,,,,,,,,,,,,,,,,,,,,,,,,,,,,
455,0.0299072,-0.00656128,-0.0187683,0.0227356,0.0283813,0.0279236,-0.0291443,0.0341797,-0.00518799,,,,,,,,,,,,,,,,,,,,,,,,,,,,,,,,,,,,,,,,,
455,-0.0234985,0.00350952,0.0193787,0.00228882,0.00213623,-0.00778198,-0.00244141,-0.00274658,-0.00259399,,,,,,,,,,,,,,,,,,,,,,,,,,,,,,,,,,,,,,,,,
455,0.0250244,0.0163269,-0.0120544,-0.017395,0.0245667,-0.00549316,-0.0204468,0.0276184,0.00213623,,,,,,,,,,,,,,,,,,,,,,,,,,,,,,,,,,,,,,,,,
455,-0.0309753,0.0283813,0.00457764,0.0177002,-0.00640869,-0.0163269,0.017395,0.0280762,0.00274658,,,,,,,,,,,,,,,,,,,,,,,,,,,,,,,,,,,,,,,,,
455,0.0149536,0.0216675,-0.00610352,0.0105286,0.0219727,0.00976562,-0.00808716,0.00198364,0.00488281,,,,,,,,,,,,,,,,,,,,,,,,,,,,,,,,,,,,,,,,,
455,0.00228882,0.0309753,-0.00335693,0.00610352,0.0213623,0.00442505,-0.0244141,0.0141907,0.0247192,,,,,,,,,,,,,,,,,,,,,,,,,,,,,,,,,,,,,,,,,
456,0.0367737,0.04776,0.00183105,-0.0167847,0.0187683,0.0430298,0.00350952,0.0270081,0.00244141,,,,,,,,,,,,,,,,,,,,,,,,,,,,,,,,,,,,,,,,,
456,-0.00717163,0.0263977,0.0128174,-0.0283813,0.0396729,0.0160217,-0.0138855,0.0267029,0.0439453,,,,,,,,,,,,,,,,,,,,,,,,,,,,,,,,,,,,,,,,,
456,-0.0137329,0.0506592,0.0248718,0.00259399,0.00869751,0.00427246,0.0263977,0.0263977,-0.0175476,,,,,,,,,,,,,,,,,,,,,,,,,,,,,,,,,,,,,,,,,
456,0.00686646,0.0532532,0.0239563,0.0114441,0.0300598,-0.0141907,-0.00671387,0.0489807,0.0228882,,,,,,,,,,,,,,,,,,,,,,,,,,,,,,,,,,,,,,,,,
456,-0.014801,0.0648499,0.0198364,-0.0114441,-0.00488281,0.00839233,-0.00213623,-0.00213623,-0.00549316,,,,,,,,,,,,,,,,,,,,,,,,,,,,,,,,,,,,,,,,,
456,0.0320435,0.0593567,-0.032959,-0.0132751,0.0184631,0.0218201,0.0132751,0.0169373,0.0405884,,,,,,,,,,,,,,,,,,,,,,,,,,,,,,,,,,,,,,,,,
456,-0.00183105,0.0680542,0.0157166,-0.00854492,-0.00244141,0.00350952,0.0482178,0.0117493,0.00335693,,,,,,,,,,,,,,,,,,,,,,,,,,,,,,,,,,,,,,,,,
456,0.0288391,0.0723267,0.00564575,-0.017395,0.0134277,0.0267029,0.018158,0.040741,0.0195312,,,,,,,,,,,,,,,,,,,,,,,,,,,,,,,,,,,,,,,,,
456,-0.014801,0.0904846,0.0210571,0.052948,0.035553,0.00305176,0.0234985,0.045929,0.0354004,,,,,,,,,,,,,,,,,,,,,,,,,,,,,,,,,,,,,,,,,
456,0.0454712,0.0840759,-0.0221252,0.0738525,0.01297,0.0375366,-0.00747681,0.0430298,0.0141907,,,,,,,,,,,,,,,,,,,,,,,,,,,,,,,,,,,,,,,,,
457,0.0126648,0.0689697,0.0254822,0.0968933,0.00518799,0.00656128,0.0050354,0.0184631,0.0151062,,,,,,,,,,,,,,,,,,,,,,,,,,,,,,,,,,,,,,,,,
457,0.00701904,0.112762,0.0263977,-0.0408936,0.00640869,0.0242615,0.040741,0.00976562,-0.0178528,,,,,,,,,,,,,,,,,,,,,,,,,,,,,,,,,,,,,,,,,
457,0.0233459,0.0704956,-0.00442505,-0.0648499,0.0114441,-0.00244141,-0.000762939,0.0549316,0.0166321,,,,,,,,,,,,,,,,,,,,,,,,,,,,,,,,,,,,,,,,,
457,-0.0131226,0.101471,0.0337219,-0.09552,-0.0260925,0.00244141,0.0245667,0.0062561,-0.0012207,,,,,,,,,,,,,,,,,,,,,,,,,,,,,,,,,,,,,,,,,
457,0.0253296,0.0888062,0.000152588,-0.0666809,0.0318909,-0.012207,-0.00244141,0.0479126,0.0183105,,,,,,,,,,,,,,,,,,,,,,,,,,,,,,,,,,,,,,,,,
457,0.0276184,0.11322,0.0312805,-0.039978,0.012207,0.0154114,0.00869751,0.0219727,-0.00183105,,,,,,,,,,,,,,,,,,,,,,,,,,,,,,,,,,,,,,,,,
457,0.018158,0.115051,-0.0088501,0.0134277,0.0340271,0.0105286,0.0283813,0.0314331,0.0230408,,,,,,,,,,,,,,,,,,,,,,,,,,,,,,,,,,,,,,,,,
457,0.0088501,0.0820923,0.0646973,0.0810242,0.00366211,0.0135803,0.0463867,0.014801,0.012207,,,,,,,,,,,,,,,,,,,,,,,,,,,,,,,,,,,,,,,,,
457,0.0262451,0.127563,0.0143433,0.0827026,0.0556946,-0.00350952,0.0244141,0.0302124,0.0262451,,,,,,,,,,,,,,,,,,,,,,,,,,,,,,,,,,,,,,,,,
457,-0.00289917,0.0787354,0.0440979,0.165405,0.00534058,-0.0183105,0.0469971,0.0341797,0.00762939,,,,,,,,,,,,,,,,,,,,,,,,,,,,,,,,,,,,,,,,,
458,-0.000305176,0.124054,0.0474548,0.0317383,0.00152588,0.00610352,0.0456238,0.0495911,0.00473022,,,,,,,,,,,,,,,,,,,,,,,,,,,,,,,,,,,,,,,,,
458,-0.00946045,0.115662,-0.000152588,0.000152588,0.0326538,-0.0205994,0.015564,0.0440979,0.0108337,,,,,,,,,,,,,,,,,,,,,,,,,,,,,,,,,,,,,,,,,
458,0.0178528,0.112305,0.0157166,0.0270081,0.0265503,0.0180054,0.0346375,0.00732422,-0.0170898,,,,,,,,,,,,,,,,,,,,,,,,,,,,,,,,,,,,,,,,,
458,0.0163269,0.0888062,0.0349426,0.0332642,0.0244141,-0.00213623,0.0128174,0.0384521,0.0253296,,,,,,,,,,,,,,,,,,,,,,,,,,,,,,,,,,,,,,,,,
458,0.0134277,0.117035,0.0416565,-0.0198364,-0.00656128,0.025177,0.00427246,0.020752,-0.00640869,,,,,,,,,,,,,,,,,,,,,,,,,,,,,,,,,,,,,,,,,
458,0.00686646,0.0930786,0.0205994,-0.00595093,0.0349426,0.0306702,-0.00457764,0.0566101,0.0248718,,,,,,,,,,,,,,,,,,,,,,,,,,,,,,,,,,,,,,,,,
458,-0.00732422,0.11673,0.0515747,-0.0630188,0.000762939,-0.00930786,0.015564,0.00808716,-0.0105286,,,,,,,,,,,,,,,,,,,,,,,,,,,,,,,,,,,,,,,,,
458,0.045166,0.0946045,0.017395,-0.188904,0.0323486,-0.000762939,0.0280762,0.0390625,0.000305176,,,,,,,,,,,,,,,,,,,,,,,,,,,,,,,,,,,,,,,,,
458,0.00427246,0.117645,0.0444031,-0.307312,0.0471497,-0.0273132,0.0419617,0.0108337,-0.0138855,,,,,,,,,,,,,,,,,,,,,,,,,,,,,,,,,,,,,,,,,
458,0.019989,0.104218,0.0219727,-0.238342,0.0320435,0.00930786,0.0254822,0.0201416,0.00152588,,,,,,,,,,,,,,,,,,,,,,,,,,,,,,,,,,,,,,,,,
459,-0.010376,0.0930786,0.0431824,-0.112,0.00106812,-0.010376,0.0370789,0.0276184,0.00991821,,,,,,,,,,,,,,,,,,,,,,,,,,,,,,,,,,,,,,,,,
459,0.0219727,0.0834656,0.025177,0.091095,0.0427246,0.00518799,0.020752,-0.00579834,-0.0132751,,,,,,,,,,,,,,,,,,,,,,,,,,,,,,,,,,,,,,,,,
459,0.0131226,0.0616455,0.0326538,0.384064,0.0395203,-0.0109863,0.0177002,0.0198364,0.00564575,,,,,,,,,,,,,,,,,,,,,,,,,,,,,,,,,,,,,,,,,
459,0.0170898,0.0996399,0.0357056,0.360565,0.0195312,0.0309753,0.0128174,0.015564,-0.0234985,,,,,,,,,,,,,,,,,,,,,,,,,,,,,,,,,,,,,,,,,
459,0.030365,0.0559998,0.0100708,0.257874,0.0297546,-0.00228882,0.0160217,0.0315857,0.00564575,,,,,,,,,,,,,,,,,,,,,,,,,,,,,,,,,,,,,,,,,
459,0.0242615,0.0949097,0.0410461,0.0140381,0.00411987,0.0411987,0.0442505,-0.00991821,-0.0248718,,,,,,,,,,,,,,,,,,,,,,,,,,,,,,,,,,,,,,,,,
459,0.0325012,0.0588989,0.0088501,-0.0498962,0.0302124,0.0248718,0.0100708,0.0300598,-0.000915527,,,,,,,,,,,,,,,,,,,,,,,,,,,,,,,,,,,,,,,,,
459,-0.00106812,0.0724792,0.0357056,0.00396729,0.000762939,0.0198364,0.0411987,0.0260925,-0.0134277,,,,,,,,,,,,,,,,,,,,,,,,,,,,,,,,,,,,,,,,,
459,0.00854492,0.0579834,-0.000762939,-0.0346375,0.0230408,0.00869751,0.0392151,0.0158691,-0.0161743,,,,,,,,,,,,,,,,,,,,,,,,,,,,,,,,,,,,,,,,,
459,-0.0212097,0.0291443,0.00915527,0.0210571,0.00839233,-0.043335,0.0616455,0.0288391,-0.015564,,,,,,,,,,,,,,,,,,,,,,,,,,,,,,,,,,,,,,,,,
460,0.00396729,0.0431824,0.0177002,-0.0143433,0.0187683,0.00534058,0.0239563,0.0248718,-0.012207,,,,,,,,,,,,,,,,,,,,,,,,,,,,,,,,,,,,,,,,,
460,0.0125122,0.0218201,0.0297546,-0.0460815,-0.014801,0.0138855,0.0175476,0.039978,0.00350952,,,,,,,,,,,,,,,,,,,,,,,,,,,,,,,,,,,,,,,,,
460,0.0192261,0.0540161,0.0405884,-0.0151062,-0.0212097,0.0265503,0.0439453,-0.00137329,-0.00518799,,,,,,,,,,,,,,,,,,,,,,,,,,,,,,,,,,,,,,,,,
460,0.0320435,0.014801,0.0137329,0.0849915,0.0170898,0.0131226,-0.00274658,0.0405884,0.00915527,,,,,,,,,,,,,,,,,,,,,,,,,,,,,,,,,,,,,,,,,
460,-0.0154114,0.0404358,0.0453186,0.080719,0.0141907,0.00656128,0.0357056,0.00701904,-0.0219727,,,,,,,,,,,,,,,,,,,,,,,,,,,,,,,,,,,,,,,,,
460,0.0106812,0.0201416,0.0111389,0.088501,0.0152588,0.0100708,0.0209045,0.018158,0.00320435,,,,,,,,,,,,,,,,,,,,,,,,,,,,,,,,,,,,,,,,,
460,0.0140381,0.00595093,0.0468445,0.0462341,-0.0160217,0.000762939,0.0450134,0.00396729,-0.0132751,,,,,,,,,,,,,,,,,,,,,,,,,,,,,,,,,,,,,,,,,
460,0.0166321,-0.0442505,0.00976562,0.0283813,0.00427246,0.0102234,0.00915527,0.0218201,0.00747681,,,,,,,,,,,,,,,,,,,,,,,,,,,,,,,,,,,,,,,,,
460,-0.0234985,-0.0384521,0.0190735,0.0230408,-0.022583,-0.0172424,0.0270081,0.0204468,-0.0248718,,,,,,,,,,,,,,,,,,,,,,,,,,,,,,,,,,,,,,,,,
460,0.0123596,-0.0112915,-0.0192261,-0.0315857,-0.00244141,0.0265503,0.0062561,0.0300598,-0.0151062,,,,,,,,,,,,,,,,,,,,,,,,,,,,,,,,,,,,,,,,,
461,0.00656128,-0.0363159,0.0186157,-0.0280762,-0.0265503,0.0050354,0.0157166,-0.0164795,0.00671387,,,,,,,,,,,,,,,,,,,,,,,,,,,,,,,,,,,,,,,,,
461,0.0474548,-0.0149536,0.00228882,0.148773,0.0195312,0.0196838,0.0543213,-0.0238037,-0.0349426,,,,,,,,,,,,,,,,,,,,,,,,,,,,,,,,,,,,,,,,,
461,0.00244141,-0.0628662,-0.00183105,0.233765,0.0419617,-0.0114441,0.0289917,-0.039978,0.0050354,,,,,,,,,,,,,,,,,,,,,,,,,,,,,,,,,,,,,,,,,
461,0.0102234,-0.0460815,-0.00366211,-0.0112915,0.0131226,0.00686646,0.0370789,-0.0422668,0.00640869,,,,,,,,,,,,,,,,,,,,,,,,,,,,,,,,,,,,,,,,,
461,0.00152588,-0.102539,0.014801,-0.0448608,0.0431824,0.00900269,0.00732422,-0.00473022,0.00335693,,,,,,,,,,,,,,,,,,,,,,,,,,,,,,,,,,,,,,,,,
461,0.00701904,-0.0822449,0.0276184,-0.0456238,0.00656128,-0.0132751,0.0561523,-0.0482178,-0.043335,,,,,,,,,,,,,,,,,,,,,,,,,,,,,,,,,,,,,,,,,
461,0.0344849,-0.122681,-0.0115967,0.00411987,0.012207,0.00564575,0.0320435,-0.0167847,-0.00473022,,,,,,,,,,,,,,,,,,,,,,,,,,,,,,,,,,,,,,,,,
461,0.000457764,-0.134735,0.0270081,0.0646973,0.00183105,-0.0172424,0.0526428,-0.0700378,-0.0169373,,,,,,,,,,,,,,,,,,,,,,,,,,,,,,,,,,,,,,,,,
461,0.0256348,-0.130463,-0.00244141,-0.0779724,0.0177002,0.0172424,0.0323486,-0.0704956,-0.0259399,,,,,,,,,,,,,,,,,,,,,,,,,,,,,,,,,,,,,,,,,
461,0.00518799,-0.172882,0.0193787,-0.125427,0.0062561,0.0283813,0.00610352,-0.0149536,-0.0204468,,,,,,,,,,,,,,,,,,,,,,,,,,,,,,,,,,,,,,,,,
462,0.0300598,-0.148163,0.00808716,-0.101929,-0.0248718,0.058136,0.0404358,-0.0727844,-0.00289917,,,,,,,,,,,,,,,,,,,,,,,,,,,,,,,,,,,,,,,,,
462,-0.00473022,-0.178375,0.00808716,-0.0769043,0.0265503,-0.00183105,0.0178528,0.00640869,-0.00671387,,,,,,,,,,,,,,,,,,,,,,,,,,,,,,,,,,,,,,,,,
462,0.0189209,-0.170441,0.00839233,-0.259705,0.0245667,0.00671387,0.027771,-0.0524902,-0.0326538,,,,,,,,,,,,,,,,,,,,,,,,,,,,,,,,,,,,,,,,,
462,0.025177,-0.235138,-0.0138855,-0.233765,0.025177,0.00442505,-0.00732422,-0.0314331,-0.000305176,,,,,,,,,,,,,,,,,,,,,,,,,,,,,,,,,,,,,,,,,
462,-0.00778198,-0.209808,0.019989,-0.123291,-0.00717163,0.00137329,0.032196,-0.0424194,-0.0256348,,,,,,,,,,,,,,,,,,,,,,,,,,,,,,,,,,,,,,,,,
462,0.0132751,-0.235291,-0.017395,-0.0170898,0.0378418,-0.00686646,0.00640869,-0.00778198,0.000610352,,,,,,,,,,,,,,,,,,,,,,,,,,,,,,,,,,,,,,,,,
462,-0.00915527,-0.245361,0.0402832,0.119476,-0.000610352,-0.000762939,0.00656128,-0.0187683,-0.0204468,,,,,,,,,,,,,,,,,,,,,,,,,,,,,,,,,,,,,,,,,
462,0.019989,-0.2565,0.00244141,0.197144,0.0561523,0.0288391,-0.0115967,-0.0302124,0.00640869,,,,,,,,,,,,,,,,,,,,,,,,,,,,,,,,,,,,,,,,,
462,0.0180054,-0.268097,0.020752,0.163879,0.0408936,0.01297,0.0239563,-0.0430298,-0.0012207,,,,,,,,,,,,,,,,,,,,,,,,,,,,,,,,,,,,,,,,,
462,0.0242615,-0.263519,-0.00488281,0.204163,0.0349426,0.0408936,-0.0117493,-0.0263977,0.0260925,,,,,,,,,,,,,,,,,,,,,,,,,,,,,,,,,,,,,,,,,
463,-0.00595093,-0.280914,0.0230408,0.203247,0.0175476,0.00564575,0.0253296,-0.0411987,0.018158,,,,,,,,,,,,,,,,,,,,,,,,,,,,,,,,,,,,,,,,,
463,0.0126648,-0.281525,-0.00946045,0.132751,0.030365,0.0344849,-0.00686646,-0.0505066,0.0294495,,,,,,,,,,,,,,,,,,,,,,,,,,,,,,,,,,,,,,,,,
463,-0.00961304,-0.306091,0.0434875,0.00854492,-0.00732422,-0.0164795,0.00350952,-0.0100708,0.0274658,,,,,,,,,,,,,,,,,,,,,,,,,,,,,,,,,,,,,,,,,
463,0.0115967,-0.290375,0.0137329,-0.158081,0.0254822,0.00991821,0.0312805,-0.03479,0.00198364,,,,,,,,,,,,,,,,,,,,,,,,,,,,,,,,,,,,,,,,,
463,-0.00915527,-0.329285,0.020752,0.0508118,-0.00579834,-0.0259399,0.0357056,-0.0247192,0.0286865,,,,,,,,,,,,,,,,,,,,,,,,,,,,,,,,,,,,,,,,,
463,0.0138855,-0.300446,0.000152588,0.0393677,0.0296021,0.0308228,-0.0100708,-0.0363159,0.045929,,,,,,,,,,,,,,,,,,,,,,,,,,,,,,,,,,,,,,,,,
463,-0.0111389,-0.32135,0.0410461,-0.037384,-0.0386047,0.0256348,0.0161743,-0.0273132,-0.00686646,,,,,,,,,,,,,,,,,,,,,,,,,,,,,,,,,,,,,,,,,
463,0.0263977,-0.32608,0.0158691,-0.0242615,0.0375366,0.0297546,-0.00747681,-0.0344849,0.0286865,,,,,,,,,,,,,,,,,,,,,,,,,,,,,,,,,,,,,,,,,
463,0.00427246,-0.318909,0.0489807,-0.00640869,0.00228882,0.01297,0.00701904,-0.0231934,0.00640869,,,,,,,,,,,,,,,,,,,,,,,,,,,,,,,,,,,,,,,,,
463,-0.000915527,-0.315704,0.0175476,0.0247192,0.00946045,0.0318909,-0.0245667,-0.0395203,0.059967,,,,,,,,,,,,,,,,,,,,,,,,,,,,,,,,,,,,,,,,,
464,-0.00564575,-0.320587,0.0437927,0.222015,-0.0228882,0.0273132,0.00823975,-0.037384,0.0419617,,,,,,,,,,,,,,,,,,,,,,,,,,,,,,,,,,,,,,,,,
464,0.0379944,-0.298767,0.00579834,0.332184,0.0338745,0.00961304,-0.0193787,0.00320435,0.0357056,,,,,,,,,,,,,,,,,,,,,,,,,,,,,,,,,,,,,,,,,
464,-0.012207,-0.325012,0.0645447,0.243835,-0.0334167,0.00869751,0.00152588,-0.00900269,0.0285339,,,,,,,,,,,,,,,,,,,,,,,,,,,,,,,,,,,,,,,,,
464,0.0241089,-0.317078,0.0198364,0.0431824,0.0189209,0.0123596,-0.0187683,-0.0146484,0.0566101,,,,,,,,,,,,,,,,,,,,,,,,,,,,,,,,,,,,,,,,,
464,-0.0297546,-0.327301,0.0559998,0.0271606,-0.0140381,0.00396729,-0.0151062,0.00289917,0.0596619,,,,,,,,,,,,,,,,,,,,,,,,,,,,,,,,,,,,,,,,,
464,0.0230408,-0.274353,0.0354004,-0.063324,0.0120544,0.0416565,-0.0338745,0.00839233,0.0808716,,,,,,,,,,,,,,,,,,,,,,,,,,,,,,,,,,,,,,,,,
464,-0.0270081,-0.267334,0.0643921,-0.110779,0.0341797,0.00564575,-0.0157166,-0.0157166,0.0361633,,,,,,,,,,,,,,,,,,,,,,,,,,,,,,,,,,,,,,,,,
464,-0.00808716,-0.26474,0.0445557,-0.243683,0.0398254,0.0318909,-0.0532532,0.0190735,0.0811768,,,,,,,,,,,,,,,,,,,,,,,,,,,,,,,,,,,,,,,,,
464,0.0137329,-0.27771,0.0665283,-0.217133,0.00976562,0.00854492,-0.0146484,0.00564575,0.0679016,,,,,,,,,,,,,,,,,,,,,,,,,,,,,,,,,,,,,,,,,
464,0.0288391,-0.234833,0.0283813,-0.0785828,0.0448608,0.0273132,-0.0404358,-0.0115967,0.068512,,,,,,,,,,,,,,,,,,,,,,,,,,,,,,,,,,,,,,,,,
465,0.00244141,-0.209808,0.0933838,0.0672913,0.0257874,0.0445557,-0.0102234,0.00152588,0.0505066,,,,,,,,,,,,,,,,,,,,,,,,,,,,,,,,,,,,,,,,,
465,0.032196,-0.171356,0.0450134,-0.000915527,0.0187683,0.0283813,-0.0558472,0.0325012,0.0671387,,,,,,,,,,,,,,,,,,,,,,,,,,,,,,,,,,,,,,,,,
465,-0.00167847,-0.142975,0.0837708,0.0437927,-0.00411987,0.00793457,-0.0158691,-0.0292969,0.0389099,,,,,,,,,,,,,,,,,,,,,,,,,,,,,,,,,,,,,,,,,
465,0.0270081,-0.103302,0.0413513,-0.0216675,0.00534058,0.0289917,-0.0448608,0.0062561,0.0840759,,,,,,,,,,,,,,,,,,,,,,,,,,,,,,,,,,,,,,,,,
465,-0.0100708,-0.0770569,0.1091,-0.142822,-0.0367737,-0.00427246,0.00106812,-0.00106812,0.0514221,,,,,,,,,,,,,,,,,,,,,,,,,,,,,,,,,,,,,,,,,
465,0.0306702,-0.0335693,0.0610352,-0.183563,-0.00213623,0.0221252,-0.0465393,-0.018158,0.0715637,,,,,,,,,,,,,,,,,,,,,,,,,,,,,,,,,,,,,,,,,
465,0.00427246,-0.0154114,0.0630188,-0.131073,0.00183105,-0.00183105,-0.0193787,0.0117493,0.0669861,,,,,,,,,,,,,,,,,,,,,,,,,,,,,,,,,,,,,,,,,
465,0.0430298,0.0238037,0.0500488,-0.199432,-0.00778198,0.0440979,-0.0137329,0.0285339,0.0646973,,,,,,,,,,,,,,,,,,,,,,,,,,,,,,,,,,,,,,,,,
465,0.00137329,0.0473022,0.0674438,-0.138702,0.0138855,0.0062561,-0.0267029,0.0138855,0.0933838,,,,,,,,,,,,,,,,,,,,,,,,,,,,,,,,,,,,,,,,,
465,0.0341797,0.127106,0.0575256,-0.0978088,0.0376892,0.0178528,-0.00228882,0.0062561,0.0553894,,,,,,,,,,,,,,,,,,,,,,,,,,,,,,,,,,,,,,,,,
466,-0.000305176,0.112457,0.0579834,-0.0230408,0.0260925,-0.0340271,-0.0231934,0.017395,0.0698853,,,,,,,,,,,,,,,,,,,,,,,,,,,,,,,,,,,,,,,,,
466,-0.000915527,0.161438,0.0485229,-0.0524902,0.00762939,-0.00320435,0.0204468,-0.0169373,0.0440979,,,,,,,,,,,,,,,,,,,,,,,,,,,,,,,,,,,,,,,,,
466,0.0158691,0.15213,0.0250244,0.123291,0.0402832,-0.0216675,-0.0212097,0.0363159,0.0901794,,,,,,,,,,,,,,,,,,,,,,,,,,,,,,,,,,,,,,,,,
466,0.000915527,0.206757,0.0686646,0.182953,-0.00411987,0.000915527,0.0483704,-0.0198364,0.0491333,,,,,,,,,,,,,,,,,,,,,,,,,,,,,,,,,,,,,,,,,
466,0.0164795,0.22583,0.0714111,0.0582886,-0.00442505,-0.000457764,-0.0088501,0.0263977,0.0662231,,,,,,,,,,,,,,,,,,,,,,,,,,,,,,,,,,,,,,,,,
466,-0.00717163,0.220337,0.078125,0.0410461,-0.0205994,-0.0115967,0.0126648,0.0436401,0.0700378,,,,,,,,,,,,,,,,,,,,,,,,,,,,,,,,,,,,,,,,,
466,0.043335,0.270081,0.0392151,0.0558472,0.0213623,0.0299072,-0.0109863,-0.00106812,0.0512695,,,,,,,,,,,,,,,,,,,,,,,,,,,,,,,,,,,,,,,,,
466,0.0111389,0.261078,0.0569153,0.04776,0.00701904,-0.0238037,0.0038147,0.0222778,0.0790405,,,,,,,,,,,,,,,,,,,,,,,,,,,,,,,,,,,,,,,,,
466,0.0117493,0.307465,0.0654602,-0.0296021,0.00900269,0.0131226,0.032196,-0.0151062,0.0695801,,,,,,,,,,,,,,,,,,,,,,,,,,,,,,,,,,,,,,,,,
466,0.0245667,0.294495,0.0473022,-0.00152588,0.00350952,0.0212097,0.00244141,0.038147,0.0706482,,,,,,,,,,,,,,,,,,,,,,,,,,,,,,,,,,,,,,,,,
467,-0.00106812,0.347443,0.0227356,0.0114441,0.0102234,0.0366211,0.0170898,-0.00793457,0.0680542,,,,,,,,,,,,,,,,,,,,,,,,,,,,,,,,,,,,,,,,,
467,0.0125122,0.340881,0.0289917,0.135193,0.0195312,-0.000762939,0.00518799,0.0123596,0.0680542,,,,,,,,,,,,,,,,,,,,,,,,,,,,,,,,,,,,,,,,,
467,-0.000610352,0.36377,0.0309753,0.0987244,0.0144958,-0.00961304,0.017395,-0.00915527,0.0386047,,,,,,,,,,,,,,,,,,,,,,,,,,,,,,,,,,,,,,,,,
467,0.0123596,0.346069,0.0151062,-0.00213623,0.0323486,-0.020752,0.0523376,0.0382996,0.0683594,,,,,,,,,,,,,,,,,,,,,,,,,,,,,,,,,,,,,,,,,
467,-0.00640869,0.359955,0.0457764,-0.0437927,0.0282288,-0.0280762,0.0769043,-0.00274658,0.0474548,,,,,,,,,,,,,,,,,,,,,,,,,,,,,,,,,,,,,,,,,
467,0.0349426,0.369568,0.00595093,-0.130615,0.0318909,0.0111389,0.0341797,0.0282288,0.10025,,,,,,,,,,,,,,,,,,,,,,,,,,,,,,,,,,,,,,,,,
467,-0.0088501,0.351105,0.0331116,-0.0900269,0.0335693,-0.00854492,0.0619507,0.0213623,0.0656128,,,,,,,,,,,,,,,,,,,,,,,,,,,,,,,,,,,,,,,,,
467,0.0247192,0.367889,-0.00823975,-0.0296021,0.0326538,0.0282288,0.0238037,0.00610352,0.0482178,,,,,,,,,,,,,,,,,,,,,,,,,,,,,,,,,,,,,,,,,
467,-0.00152588,0.365906,0.00411987,0.1091,0.03479,-0.0283813,0.050354,0.0265503,0.0723267,,,,,,,,,,,,,,,,,,,,,,,,,,,,,,,,,,,,,,,,,
467,0.0125122,0.388794,-0.0140381,-0.0422668,0.00717163,0.00747681,0.0871277,-0.0215149,0.0509644,,,,,,,,,,,,,,,,,,,,,,,,,,,,,,,,,,,,,,,,,
468,0.00335693,0.361633,-0.0186157,-0.0808716,-0.010376,-0.00808716,0.0595093,0.0265503,0.0637817,,,,,,,,,,,,,,,,,,,,,,,,,,,,,,,,,,,,,,,,,
468,0.0172424,0.375671,-0.0341797,-0.110474,-0.0273132,0.0256348,0.0816345,0.0216675,0.042572,,,,,,,,,,,,,,,,,,,,,,,,,,,,,,,,,,,,,,,,,
468,0.0238037,0.352936,-0.0396729,-0.0228882,0.0248718,0.0143433,0.0712585,0.0340271,0.0720215,,,,,,,,,,,,,,,,,,,,,,,,,,,,,,,,,,,,,,,,,
468,-0.00244141,0.394135,-0.0408936,-0.0422668,0.00717163,0.0314331,0.088501,0.0111389,0.058136,,,,,,,,,,,,,,,,,,,,,,,,,,,,,,,,,,,,,,,,,
468,0.0131226,0.379333,-0.0775146,0.0190735,0.0582886,0.00411987,0.0688171,0.0305176,0.0987244,,,,,,,,,,,,,,,,,,,,,,,,,,,,,,,,,,,,,,,,,
468,0.0106812,0.376282,-0.0328064,0.186462,-0.00595093,-0.010376,0.0994873,0.0282288,0.0552368,,,,,,,,,,,,,,,,,,,,,,,,,,,,,,,,,,,,,,,,,
468,0.0274658,0.355072,-0.0730896,0.135498,0.06073,-0.0204468,0.10376,0.035553,0.0698853,,,,,,,,,,,,,,,,,,,,,,,,,,,,,,,,,,,,,,,,,
468,-0.00534058,0.353699,-0.0366211,0.0350952,0.0512695,-0.0157166,0.0930786,0.0268555,0.0520325,,,,,,,,,,,,,,,,,,,,,,,,,,,,,,,,,,,,,,,,,
468,0.0146484,0.355377,-0.0921631,-0.103455,0.0323486,0.0286865,0.0878906,0.0268555,0.0567627,,,,,,,,,,,,,,,,,,,,,,,,,,,,,,,,,,,,,,,,,
468,-0.00976562,0.340424,-0.0860596,-0.106506,0.00762939,-0.0157166,0.106354,0.0474548,0.06073,,,,,,,,,,,,,,,,,,,,,,,,,,,,,,,,,,,,,,,,,
469,0.0205994,0.35675,-0.0854492,-0.00946045,0.00152588,0.0247192,0.123749,0.0222778,0.0370789,,,,,,,,,,,,,,,,,,,,,,,,,,,,,,,,,,,,,,,,,
469,0.0238037,0.35141,-0.0627136,0.0656128,0.0198364,-0.00366211,0.0843811,0.0263977,0.0616455,,,,,,,,,,,,,,,,,,,,,,,,,,,,,,,,,,,,,,,,,
469,0.019989,0.355377,-0.0636292,0.0601196,0.0160217,0.0241089,0.104828,0.0157166,0.0175476,,,,,,,,,,,,,,,,,,,,,,,,,,,,,,,,,,,,,,,,,
469,0.00976562,0.322571,-0.0802612,0.096283,0.0311279,-0.00152588,0.0843811,0.0424194,0.03479,,,,,,,,,,,,,,,,,,,,,,,,,,,,,,,,,,,,,,,,,
469,0.00152588,0.344238,-0.0631714,-0.00274658,-0.00305176,0.0242615,0.0985718,0.0180054,0.00427246,,,,,,,,,,,,,,,,,,,,,,,,,,,,,,,,,,,,,,,,,
469,0.000457764,0.33844,-0.0938416,-0.0733948,0.0256348,0.00747681,0.0686646,0.0440979,0.0135803,,,,,,,,,,,,,,,,,,,,,,,,,,,,,,,,,,,,,,,,,
469,0.0117493,0.323334,-0.0662231,-0.0325012,-0.0227356,0.00656128,0.0823975,-0.00259399,-0.0160217,,,,,,,,,,,,,,,,,,,,,,,,,,,,,,,,,,,,,,,,,
469,0.0354004,0.320435,-0.0956726,0.0161743,-0.000762939,0.0326538,0.0915527,0.0158691,-0.0282288,,,,,,,,,,,,,,,,,,,,,,,,,,,,,,,,,,,,,,,,,
469,-0.00198364,0.300598,-0.0624084,-0.0294495,-0.0239563,0.0111389,0.0952148,0.0418091,-0.0238037,,,,,,,,,,,,,,,,,,,,,,,,,,,,,,,,,,,,,,,,,
469,0.0242615,0.302582,-0.0608826,-0.0511169,0.015564,0.0154114,0.0715637,0.0279236,-0.019989,,,,,,,,,,,,,,,,,,,,,,,,,,,,,,,,,,,,,,,,,
470,0.035553,0.284729,-0.0794983,-0.0288391,0.0245667,-0.014801,0.0886536,0.0210571,-0.0164795,,,,,,,,,,,,,,,,,,,,,,,,,,,,,,,,,,,,,,,,,
470,0.0257874,0.274963,-0.059967,-0.0671387,0.0268555,0.00457764,0.0837708,0.0302124,-0.0537109,,,,,,,,,,,,,,,,,,,,,,,,,,,,,,,,,,,,,,,,,
470,0.0302124,0.264587,-0.0692749,-0.0796509,0.0292969,-0.00579834,0.0585938,0.0315857,-0.0341797,,,,,,,,,,,,,,,,,,,,,,,,,,,,,,,,,,,,,,,,,
470,-0.00427246,0.273438,-0.0405884,-0.0415039,0.0112915,0.0187683,0.0737,0.0271606,-0.0462341,,,,,,,,,,,,,,,,,,,,,,,,,,,,,,,,,,,,,,,,,
470,0.0140381,0.232849,-0.0524902,0.0216675,0.045929,0.0212097,0.043335,0.0395203,-0.00473022,,,,,,,,,,,,,,,,,,,,,,,,,,,,,,,,,,,,,,,,,
470,-0.0332642,0.25116,-0.0338745,0.23407,0.00930786,-0.00244141,0.0421143,0.0210571,-0.0579834,,,,,,,,,,,,,,,,,,,,,,,,,,,,,,,,,,,,,,,,,
470,0.0463867,0.229492,-0.0460815,0.226135,0.0222778,0.0131226,0.0463867,0.0160217,-0.0422668,,,,,,,,,,,,,,,,,,,,,,,,,,,,,,,,,,,,,,,,,
470,-0.0144958,0.215302,-0.0418091,0.0175476,0.0350952,-0.00991821,0.0552368,0.0265503,-0.0408936,,,,,,,,,,,,,,,,,,,,,,,,,,,,,,,,,,,,,,,,,
470,0.0213623,0.224762,-0.0437927,-0.0776672,0.0216675,-0.00595093,0.0521851,0.0202942,-0.0196838,,,,,,,,,,,,,,,,,,,,,,,,,,,,,,,,,,,,,,,,,
470,0.0236511,0.201111,-0.0215149,-0.0883484,0.032959,-0.020752,0.0401306,0.040741,-0.0645447,,,,,,,,,,,,,,,,,,,,,,,,,,,,,,,,,,,,,,,,,
471,0.0320435,0.179901,-0.0344849,-0.0839233,-0.00305176,0.0198364,0.0201416,0.0447083,-0.0596619,,,,,,,,,,,,,,,,,,,,,,,,,,,,,,,,,,,,,,,,,
471,-0.00640869,0.172577,-0.0299072,0.0740051,0.0144958,0.0105286,0.0469971,0.0375366,-0.0360107,,,,,,,,,,,,,,,,,,,,,,,,,,,,,,,,,,,,,,,,,
471,-0.00976562,0.166016,0.00228882,0.2388,-0.00579834,0.00701904,0.0570679,0.0131226,-0.0753784,,,,,,,,,,,,,,,,,,,,,,,,,,,,,,,,,,,,,,,,,
471,0.0415039,0.120697,-0.0108337,0.090332,0.0260925,-0.00488281,0.0370789,0.0120544,-0.0398254,,,,,,,,,,,,,,,,,,,,,,,,,,,,,,,,,,,,,,,,,
471,0.00198364,0.129089,0.0164795,0.0292969,0.0117493,-0.0189209,0.0546265,0.010376,-0.0769043,,,,,,,,,,,,,,,,,,,,,,,,,,,,,,,,,,,,,,,,,
471,0.0222778,0.102386,0.0164795,-0.0643921,0.00991821,0.010376,0.0396729,0.00488281,-0.0717163,,,,,,,,,,,,,,,,,,,,,,,,,,,,,,,,,,,,,,,,,
471,-0.00518799,0.096283,0.0476074,-0.0959778,0.0140381,-0.0050354,0.035553,0.0141907,-0.0494385,,,,,,,,,,,,,,,,,,,,,,,,,,,,,,,,,,,,,,,,,
471,0.0219727,0.0891113,-0.00564575,-0.0918579,0.0138855,0.0314331,0.0260925,0.0106812,-0.0445557,,,,,,,,,,,,,,,,,,,,,,,,,,,,,,,,,,,,,,,,,
471,0.0128174,0.0338745,0.0216675,0.0186157,0.0198364,0.000457764,0.000152588,0.0192261,-0.0559998,,,,,,,,,,,,,,,,,,,,,,,,,,,,,,,,,,,,,,,,,
471,0.00335693,0.0643921,0.0273132,0.108337,0.0212097,-0.00366211,0.00701904,-0.00152588,-0.0724792,,,,,,,,,,,,,,,,,,,,,,,,,,,,,,,,,,,,,,,,,
472,0.0280762,0.0346375,0.0292969,0.259705,0.0164795,0.0192261,-0.0178528,0.0140381,-0.0395203,,,,,,,,,,,,,,,,,,,,,,,,,,,,,,,,,,,,,,,,,
472,-0.00106812,0.0479126,0.0460815,0.178375,-0.00411987,0.0219727,0.00762939,-0.0106812,-0.0624084,,,,,,,,,,,,,,,,,,,,,,,,,,,,,,,,,,,,,,,,,
472,0.0157166,0.0178528,0.027771,0.147247,0.018158,-0.00488281,-0.0131226,0.0152588,-0.0527954,,,,,,,,,,,,,,,,,,,,,,,,,,,,,,,,,,,,,,,,,
472,-0.0190735,0.0344849,0.0866699,0.0392151,0.00549316,-0.0100708,0.000305176,-0.000762939,-0.0566101,,,,,,,,,,,,,,,,,,,,,,,,,,,,,,,,,,,,,,,,,
472,0.0146484,0.00961304,0.0592041,-0.0959778,0.0144958,0.0422668,-0.0109863,0.00305176,-0.0689697,,,,,,,,,,,,,,,,,,,,,,,,,,,,,,,,,,,,,,,,,
472,-0.00259399,0.00869751,0.0712585,-0.0941467,0.0213623,-0.00564575,-0.0126648,0.010376,-0.032959,,,,,,,,,,,,,,,,,,,,,,,,,,,,,,,,,,,,,,,,,
472,0.0192261,-0.00671387,0.0752258,-0.0984192,0.0123596,0.0180054,-0.0257874,-0.0468445,-0.0502014,,,,,,,,,,,,,,,,,,,,,,,,,,,,,,,,,,,,,,,,,
472,0.0102234,-0.00976562,0.0704956,-0.0942993,0.0212097,0.0163269,-0.0294495,-0.00671387,-0.0447083,,,,,,,,,,,,,,,,,,,,,,,,,,,,,,,,,,,,,,,,,
472,0.00442505,-0.00701904,0.10437,-0.0924683,-0.0395203,0.00259399,-0.015564,-0.020752,-0.0668335,,,,,,,,,,,,,,,,,,,,,,,,,,,,,,,,,,,,,,,,,
472,0.0292969,-0.0445557,0.0454712,0.0276184,0.0117493,0.0135803,-0.0456238,0.0189209,-0.0167847,,,,,,,,,,,,,,,,,,,,,,,,,,,,,,,,,,,,,,,,,
473,-0.0166321,-0.0158691,0.0743103,0.00335693,-0.0247192,0.0177002,-0.0259399,0.00259399,-0.0675964,,,,,,,,,,,,,,,,,,,,,,,,,,,,,,,,,,,,,,,,,
473,0.00259399,-0.0402832,0.0759888,0.0222778,0.00366211,0.0164795,-0.0762939,0.00656128,-0.0242615,,,,,,,,,,,,,,,,,,,,,,,,,,,,,,,,,,,,,,,,,
473,-0.000457764,-0.0306702,0.103912,-0.0125122,-0.0221252,0.0144958,-0.0131226,-0.0175476,-0.0511169,,,,,,,,,,,,,,,,,,,,,,,,,,,,,,,,,,,,,,,,,
473,0.03479,-0.0422668,0.065155,-0.0256348,0.0367737,0.030365,-0.0280762,-0.0271606,-0.0315857,,,,,,,,,,,,,,,,,,,,,,,,,,,,,,,,,,,,,,,,,
473,-0.00289917,-0.0668335,0.0941467,-0.062561,0.0201416,-0.00778198,-0.0256348,-0.00656128,-0.0247192,,,,,,,,,,,,,,,,,,,,,,,,,,,,,,,,,,,,,,,,,
473,0.0216675,-0.0221252,0.0743103,-0.0556946,0.0186157,0.0143433,-0.0512695,-0.0161743,-0.0308228,,,,,,,,,,,,,,,,,,,,,,,,,,,,,,,,,,,,,,,,,
473,-0.00976562,-0.0796509,0.0979614,0.0587463,0.0418091,-0.0202942,-0.0631714,-0.0236511,-0.032196,,,,,,,,,,,,,,,,,,,,,,,,,,,,,,,,,,,,,,,,,
473,-0.00976562,-0.0436401,0.0787354,0.0732422,0.0364685,0.00747681,-0.0421143,-0.040741,-0.071106,,,,,,,,,,,,,,,,,,,,,,,,,,,,,,,,,,,,,,,,,
473,-0.0132751,-0.0817871,0.0782776,0.208435,0.0233459,-0.00976562,-0.0653076,0.00686646,-0.0184631,,,,,,,,,,,,,,,,,,,,,,,,,,,,,,,,,,,,,,,,,
473,0.0288391,-0.0584412,0.0846863,0.143585,0.0169373,-0.00274658,0.000610352,-0.0265503,-0.0584412,,,,,,,,,,,,,,,,,,,,,,,,,,,,,,,,,,,,,,,,,
474,0.0273132,-0.0895691,0.0552368,0.126953,0.0305176,0.0192261,-0.0704956,0.0289917,-0.019989,,,,,,,,,,,,,,,,,,,,,,,,,,,,,,,,,,,,,,,,,
474,0.0149536,-0.0592041,0.0782776,0.0878906,-0.00854492,-0.00366211,-0.0184631,-0.0366211,-0.0325012,,,,,,,,,,,,,,,,,,,,,,,,,,,,,,,,,,,,,,,,,
474,0.0273132,-0.0717163,0.0384521,-0.0111389,0.0422668,0.03479,-0.0836182,0.0248718,-0.00656128,,,,,,,,,,,,,,,,,,,,,,,,,,,,,,,,,,,,,,,,,
474,0.00640869,-0.0723267,0.0634766,-0.0971985,0.00198364,0.0247192,-0.0546265,0.0062561,-0.0280762,,,,,,,,,,,,,,,,,,,,,,,,,,,,,,,,,,,,,,,,,
474,0.0238037,-0.0611877,0.0842285,-0.164337,0.00915527,0.00305176,-0.0541687,-0.0405884,-0.0259399,,,,,,,,,,,,,,,,,,,,,,,,,,,,,,,,,,,,,,,,,
474,-0.00167847,-0.0791931,0.0805664,-0.169525,-0.00915527,-0.00671387,-0.0578308,-0.00991821,-0.0363159,,,,,,,,,,,,,,,,,,,,,,,,,,,,,,,,,,,,,,,,,
474,0.00167847,-0.0640869,0.0886536,-0.175781,0.0038147,0.0227356,-0.0434875,-0.0265503,-0.0346375,,,,,,,,,,,,,,,,,,,,,,,,,,,,,,,,,,,,,,,,,
474,-0.00747681,-0.0779724,0.0895691,0.019989,0.038147,0.00274658,-0.0862122,-0.00488281,-0.0140381,,,,,,,,,,,,,,,,,,,,,,,,,,,,,,,,,,,,,,,,,
474,0.0221252,-0.0480652,0.0665283,0.111084,0.0131226,0.00442505,-0.0282288,-0.0125122,-0.0177002,,,,,,,,,,,,,,,,,,,,,,,,,,,,,,,,,,,,,,,,,
474,0.0379944,-0.0628662,0.0534058,0.0418091,0.0361633,0.0178528,-0.0567627,-0.00946045,-0.010376,,,,,,,,,,,,,,,,,,,,,,,,,,,,,,,,,,,,,,,,,
475,0.0154114,-0.0608826,0.0799561,0.063324,-0.00671387,0.0164795,-0.017395,-0.018158,-0.0265503,,,,,,,,,,,,,,,,,,,,,,,,,,,,,,,,,,,,,,,,,
475,0.0189209,-0.0921631,0.0334167,0.0898743,0.0283813,-0.00686646,-0.0602722,0.0112915,0.00213623,,,,,,,,,,,,,,,,,,,,,,,,,,,,,,,,,,,,,,,,,
475,-0.0105286,-0.0778198,0.0708008,0.20813,-0.00411987,-0.0132751,-0.0532532,0.00488281,-0.0169373,,,,,,,,,,,,,,,,,,,,,,,,,,,,,,,,,,,,,,,,,
475,0.0135803,-0.118561,0.0276184,0.199127,0.0163269,0.00610352,-0.0787354,0.00869751,-0.0012207,,,,,,,,,,,,,,,,,,,,,,,,,,,,,,,,,,,,,,,,,
475,-0.0126648,-0.0904846,0.0440979,0.0424194,0.0161743,-0.0119019,-0.0596619,-0.0134277,-0.0244141,,,,,,,,,,,,,,,,,,,,,,,,,,,,,,,,,,,,,,,,,
475,0.0299072,-0.0679016,0.0241089,-0.150604,0.0236511,0.0421143,-0.0665283,-0.0102234,0.00854492,,,,,,,,,,,,,,,,,,,,,,,,,,,,,,,,,,,,,,,,,
475,0.0144958,-0.0854492,0.0392151,-0.185394,0.0309753,-0.000610352,-0.0767517,-0.00396729,-0.0213623,,,,,,,,,,,,,,,,,,,,,,,,,,,,,,,,,,,,,,,,,
475,0.0419617,-0.0863647,0.0262451,-0.0759888,0.022583,0.0140381,-0.0480652,-0.0283813,-0.0157166,,,,,,,,,,,,,,,,,,,,,,,,,,,,,,,,,,,,,,,,,
475,0.00427246,-0.102234,0.025177,0.131989,0.00473022,-0.0299072,-0.0299072,0.00976562,0.00137329,,,,,,,,,,,,,,,,,,,,,,,,,,,,,,,,,,,,,,,,,
475,-0.00915527,-0.0846863,0.0418091,-0.0454712,-0.00869751,0.00137329,-0.0366211,0.0128174,-0.0137329,,,,,,,,,,,,,,,,,,,,,,,,,,,,,,,,,,,,,,,,,
476,0.0372314,-0.098114,0.0411987,-0.0627136,0.0117493,0.0257874,-0.037384,0.0180054,-0.00686646,,,,,,,,,,,,,,,,,,,,,,,,,,,,,,,,,,,,,,,,,
476,0.000762939,-0.125427,0.0643921,-0.0556946,-0.0177002,0.0379944,-0.0228882,-0.000305176,-0.0132751,,,,,,,,,,,,,,,,,,,,,,,,,,,,,,,,,,,,,,,,,
476,0.000152588,-0.121155,0.0570679,-0.00167847,0.0427246,0.0364685,-0.0621033,0.0125122,0.0196838,,,,,,,,,,,,,,,,,,,,,,,,,,,,,,,,,,,,,,,,,
476,0.0111389,-0.083313,0.0570679,0.167236,0.00457764,0.0337219,-0.0192261,-0.0154114,0.00274658,,,,,,,,,,,,,,,,,,,,,,,,,,,,,,,,,,,,,,,,,
476,0.0201416,-0.13092,0.0338745,0.244141,0.0123596,0.00747681,-0.0299072,0.0050354,0.0276184,,,,,,,,,,,,,,,,,,,,,,,,,,,,,,,,,,,,,,,,,
476,0.00915527,-0.119171,0.0567627,0.152588,0.00198364,-0.0111389,-0.0221252,0.0158691,0.0167847,,,,,,,,,,,,,,,,,,,,,,,,,,,,,,,,,,,,,,,,,
476,0.0204468,-0.137329,-0.000457764,0.0466919,0.0117493,0.0189209,-0.00823975,0.00823975,0.0212097,,,,,,,,,,,,,,,,,,,,,,,,,,,,,,,,,,,,,,,,,
476,-0.00900269,-0.154877,-0.0140381,0.0396729,0.0273132,-0.0123596,-0.0363159,0.0469971,0.0354004,,,,,,,,,,,,,,,,,,,,,,,,,,,,,,,,,,,,,,,,,
476,0.0178528,-0.120239,-0.00305176,-0.000762939,0.010376,0.014801,-0.0219727,-0.0114441,0.00778198,,,,,,,,,,,,,,,,,,,,,,,,,,,,,,,,,,,,,,,,,
476,-0.00396729,-0.13916,-0.030365,0.00289917,0.0196838,0.0119019,-0.0544739,0.0227356,0.0386047,,,,,,,,,,,,,,,,,,,,,,,,,,,,,,,,,,,,,,,,,
477,0.00167847,-0.151062,-0.0645447,0.0440979,0.00656128,0.0038147,0.00137329,-0.00534058,0.00518799,,,,,,,,,,,,,,,,,,,,,,,,,,,,,,,,,,,,,,,,,
477,0.00228882,-0.172424,-0.0866699,0.0140381,0.00823975,-0.00610352,-0.0254822,0.00686646,0.0242615,,,,,,,,,,,,,,,,,,,,,,,,,,,,,,,,,,,,,,,,,
477,-0.0210571,-0.159149,-0.0559998,0.0334167,-0.0100708,-0.0352478,-0.00564575,-0.00839233,0.0204468,,,,,,,,,,,,,,,,,,,,,,,,,,,,,,,,,,,,,,,,,
477,0.0248718,-0.172119,-0.105133,-0.0299072,0.0189209,-0.0323486,-0.0131226,0.0151062,0.0416565,,,,,,,,,,,,,,,,,,,,,,,,,,,,,,,,,,,,,,,,,
477,-0.012207,-0.173645,-0.0897217,-0.0628662,0.0190735,-0.0146484,-0.0164795,0.0112915,0.0431824,,,,,,,,,,,,,,,,,,,,,,,,,,,,,,,,,,,,,,,,,
477,0.0210571,-0.153503,-0.124512,-0.132294,0.0312805,0.0440979,-0.0296021,0.00732422,0.0428772,,,,,,,,,,,,,,,,,,,,,,,,,,,,,,,,,,,,,,,,,
477,0.00717163,-0.200195,-0.11795,-0.101013,0.0202942,0.0106812,-0.0123596,0.0234985,0.0308228,,,,,,,,,,,,,,,,,,,,,,,,,,,,,,,,,,,,,,,,,
477,0.00869751,-0.161133,-0.122833,0.00747681,-0.00396729,0.0395203,-0.000915527,0.0160217,0.0279236,,,,,,,,,,,,,,,,,,,,,,,,,,,,,,,,,,,,,,,,,
477,-0.00579834,-0.203094,-0.146179,0.0775146,0.0454712,-0.0108337,-0.0314331,0.0215149,0.0567627,,,,,,,,,,,,,,,,,,,,,,,,,,,,,,,,,,,,,,,,,
477,0.00579834,-0.165863,-0.119934,-0.0718689,-0.0164795,-0.00411987,0.0112915,-0.0260925,0.0473022,,,,,,,,,,,,,,,,,,,,,,,,,,,,,,,,,,,,,,,,,
478,0.014801,-0.198059,-0.128937,0.00610352,0.0390625,-0.0221252,-0.0195312,-0.00213623,0.0535583,,,,,,,,,,,,,,,,,,,,,,,,,,,,,,,,,,,,,,,,,
478,0.0187683,-0.188751,-0.140381,0.0135803,0.0234985,-0.0314331,0.0154114,-0.00991821,0.0202942,,,,,,,,,,,,,,,,,,,,,,,,,,,,,,,,,,,,,,,,,
478,0.0202942,-0.185852,-0.133057,-0.0268555,0.0335693,-0.0193787,-0.0137329,0.00473022,0.0662231,,,,,,,,,,,,,,,,,,,,,,,,,,,,,,,,,,,,,,,,,
478,0.0135803,-0.174713,-0.113678,0.0753784,0.00228882,-0.012207,0.0279236,-0.00106812,0.0335693,,,,,,,,,,,,,,,,,,,,,,,,,,,,,,,,,,,,,,,,,
478,0.00457764,-0.190887,-0.148773,0.0691223,0.0282288,0.0166321,-0.000305176,0.00167847,0.0561523,,,,,,,,,,,,,,,,,,,,,,,,,,,,,,,,,,,,,,,,,
478,0.00640869,-0.176239,-0.128937,-0.0621033,0.0149536,-0.01297,0.00442505,0.0299072,0.0137329,,,,,,,,,,,,,,,,,,,,,,,,,,,,,,,,,,,,,,,,,
478,0.0163269,-0.167694,-0.151978,-0.151215,0.0050354,0.01297,0.0216675,-0.000610352,0.0698853,,,,,,,,,,,,,,,,,,,,,,,,,,,,,,,,,,,,,,,,,
478,0.0292969,-0.169373,-0.159149,0.00488281,0.0138855,-0.00961304,-0.0105286,0.0231934,0.0376892,,,,,,,,,,,,,,,,,,,,,,,,,,,,,,,,,,,,,,,,,
478,0.0460815,-0.17334,-0.149841,0.18631,0.00137329,0.0297546,0.0234985,0.000152588,0.0292969,,,,,,,,,,,,,,,,,,,,,,,,,,,,,,,,,,,,,,,,,
478,0.000915527,-0.182953,-0.1474,0.109406,0.00595093,-0.0190735,-0.00289917,0.0294495,0.0450134,,,,,,,,,,,,,,,,,,,,,,,,,,,,,,,,,,,,,,,,,
479,-0.0109863,-0.155182,-0.119019,-0.0596619,-0.00640869,0.00717163,0.01297,0.00976562,0.0222778,,,,,,,,,,,,,,,,,,,,,,,,,,,,,,,,,,,,,,,,,
479,0.0151062,-0.168915,-0.14679,-0.0221252,0.0115967,0.0167847,0.00701904,-0.00671387,0.0634766,,,,,,,,,,,,,,,,,,,,,,,,,,,,,,,,,,,,,,,,,
479,-0.0154114,-0.144348,-0.137024,-0.0378418,-0.0186157,0.0265503,0.0349426,-0.0126648,0.0364685,,,,,,,,,,,,,,,,,,,,,,,,,,,,,,,,,,,,,,,,,
479,0.0233459,-0.148773,-0.168762,0.0378418,0.0228882,0.0343323,0.00289917,0.0486755,0.0511169,,,,,,,,,,,,,,,,,,,,,,,,,,,,,,,,,,,,,,,,,
479,-0.00259399,-0.149536,-0.139771,0.196533,-0.00213623,-0.000762939,0.0334167,0.020752,0.032959,,,,,,,,,,,,,,,,,,,,,,,,,,,,,,,,,,,,,,,,,
479,0.0286865,-0.133667,-0.169067,0.0682068,0.0202942,0.0205994,0.0012207,-0.00457764,0.0239563,,,,,,,,,,,,,,,,,,,,,,,,,,,,,,,,,,,,,,,,,
479,-0.00152588,-0.150299,-0.142212,-0.0697327,-0.000305176,-0.00671387,0.0253296,0.04776,0.0431824,,,,,,,,,,,,,,,,,,,,,,,,,,,,,,,,,,,,,,,,,
479,-0.00244141,-0.113983,-0.144958,-0.0901794,0.0224304,0.0354004,0.0170898,-0.00900269,0.0158691,,,,,,,,,,,,,,,,,,,,,,,,,,,,,,,,,,,,,,,,,
479,0.00442505,-0.125427,-0.14801,0.0308228,0.0115967,0.010376,0.00701904,-0.00946045,0.0149536,,,,,,,,,,,,,,,,,,,,,,,,,,,,,,,,,,,,,,,,,
479,-0.00152588,-0.11261,-0.142517,-0.00335693,0.0140381,0.0376892,0.0242615,-0.00869751,0.0364685,,,,,,,,,,,,,,,,,,,,,,,,,,,,,,,,,,,,,,,,,
480,0.0192261,-0.10849,-0.196838,0.0100708,0.0289917,-0.00183105,0.00671387,0.0306702,0.0418091,,,,,,,,,,,,,,,,,,,,,,,,,,,,,,,,,,,,,,,,,
480,0.00976562,-0.0836182,-0.153656,-0.140533,0.0169373,-0.0204468,0.037384,-0.00839233,0.0213623,,,,,,,,,,,,,,,,,,,,,,,,,,,,,,,,,,,,,,,,,
480,0.0228882,-0.114441,-0.170135,-0.00991821,0.0263977,-0.0135803,0.00411987,0.015564,0.0514221,,,,,,,,,,,,,,,,,,,,,,,,,,,,,,,,,,,,,,,,,
480,-0.0126648,-0.110016,-0.147247,0.14389,0.000915527,0.0474548,0.0382996,0.00198364,0.0300598,,,,,,,,,,,,,,,,,,,,,,,,,,,,,,,,,,,,,,,,,
480,0.0177002,-0.10498,-0.17746,0.172424,0.0228882,0.0495911,0.022583,-0.0062561,0.0466919,,,,,,,,,,,,,,,,,,,,,,,,,,,,,,,,,,,,,,,,,
480,-0.0186157,-0.0942993,-0.139008,0.172577,-0.0119019,0.0157166,0.0398254,-0.015564,0.0117493,,,,,,,,,,,,,,,,,,,,,,,,,,,,,,,,,,,,,,,,,
480,0.0231934,-0.080719,-0.160828,0.0553894,0.050354,0.0552368,0.0050354,0.0257874,0.00915527,,,,,,,,,,,,,,,,,,,,,,,,,,,,,,,,,,,,,,,,,
480,-0.00915527,-0.0787354,-0.151672,-0.0302124,0.00717163,-0.00839233,0.0413513,0.0297546,0.0143433,,,,,,,,,,,,,,,,,,,,,,,,,,,,,,,,,,,,,,,,,
480,0.0205994,-0.0495911,-0.162506,-0.098877,0.0262451,0.0259399,0.0137329,-0.00946045,0.0183105,,,,,,,,,,,,,,,,,,,,,,,,,,,,,,,,,,,,,,,,,
480,0.00946045,-0.0656128,-0.149231,-0.0869751,0.0283813,-0.0050354,0.032196,0.00335693,0.0469971,,,,,,,,,,,,,,,,,,,,,,,,,,,,,,,,,,,,,,,,,
481,-0.00289917,-0.0454712,-0.142517,-0.109406,-0.000457764,-0.0239563,0.0706482,-0.000305176,0.0204468,,,,,,,,,,,,,,,,,,,,,,,,,,,,,,,,,,,,,,,,,
481,0.0151062,-0.0500488,-0.131989,0.0857544,0.0471497,-0.0495911,0.0418091,0.0231934,0.0375366,,,,,,,,,,,,,,,,,,,,,,,,,,,,,,,,,,,,,,,,,
481,0.0186157,-0.0395203,-0.110168,0.163879,0.00473022,0.00259399,0.057373,-0.0218201,0.00442505,,,,,,,,,,,,,,,,,,,,,,,,,,,,,,,,,,,,,,,,,
481,0.00595093,-0.0839233,-0.116577,-0.111694,0.0151062,-0.0125122,0.00396729,0.0259399,0.0587463,,,,,,,,,,,,,,,,,,,,,,,,,,,,,,,,,,,,,,,,,
481,0.00137329,-0.0509644,-0.106659,-0.238037,0.00747681,-0.0256348,0.037384,-0.0193787,0.00320435,,,,,,,,,,,,,,,,,,,,,,,,,,,,,,,,,,,,,,,,,
481,0.00976562,-0.0398254,-0.14679,0.0788879,0.0164795,-0.0163269,0.0205994,0.017395,0.00991821,,,,,,,,,,,,,,,,,,,,,,,,,,,,,,,,,,,,,,,,,
481,-0.0212097,-0.0262451,-0.098877,0.230713,-0.012207,-0.0228882,0.0453186,-0.00457764,0.00473022,,,,,,,,,,,,,,,,,,,,,,,,,,,,,,,,,,,,,,,,,
481,0.0411987,-0.0448608,-0.113831,0.147858,0.0109863,0.00930786,0.00808716,0.0256348,0.0192261,,,,,,,,,,,,,,,,,,,,,,,,,,,,,,,,,,,,,,,,,
481,-0.00640869,-0.035553,-0.0938416,0.148163,-0.0151062,-0.00305176,0.0489807,0.0228882,-0.000152588,,,,,,,,,,,,,,,,,,,,,,,,,,,,,,,,,,,,,,,,,
481,0.0222778,0.000152588,-0.11322,-0.037384,0.0268555,0.0570679,0.0196838,0.0115967,0.0216675,,,,,,,,,,,,,,,,,,,,,,,,,,,,,,,,,,,,,,,,,
482,-0.00183105,-0.0398254,-0.0918579,-0.236664,0.0245667,0.0141907,0.0157166,0.0157166,0.0415039,,,,,,,,,,,,,,,,,,,,,,,,,,,,,,,,,,,,,,,,,
482,0.00686646,0.00427246,-0.0799561,-0.367889,0.0195312,0.010376,0.0717163,-0.0100708,-0.0119019,,,,,,,,,,,,,,,,,,,,,,,,,,,,,,,,,,,,,,,,,
482,0.010376,-0.0387573,-0.0888062,-0.209198,0.00473022,-0.0120544,0.0311279,0.0372314,0.0273132,,,,,,,,,,,,,,,,,,,,,,,,,,,,,,,,,,,,,,,,,
482,-0.0134277,-0.0154114,-0.0428772,-0.0622559,-0.00228882,0.0212097,0.0495911,-0.00900269,-0.00610352,,,,,,,,,,,,,,,,,,,,,,,,,,,,,,,,,,,,,,,,,
482,0.0233459,-0.0276184,-0.101471,0.325012,0.0213623,-0.00274658,0.0241089,0.0210571,0.0192261,,,,,,,,,,,,,,,,,,,,,,,,,,,,,,,,,,,,,,,,,
482,0.0111389,-0.030365,-0.0178528,0.339813,-0.0187683,-0.0257874,0.0392151,0.0247192,-0.000457764,,,,,,,,,,,,,,,,,,,,,,,,,,,,,,,,,,,,,,,,,
482,0.0126648,-0.00656128,-0.0576782,0.0514221,0.017395,0.017395,0.0405884,0.0012207,0.0138855,,,,,,,,,,,,,,,,,,,,,,,,,,,,,,,,,,,,,,,,,
482,-0.00610352,-0.0180054,-0.017395,0.025177,-0.00152588,0.0161743,0.0480652,0.0288391,0.0149536,,,,,,,,,,,,,,,,,,,,,,,,,,,,,,,,,,,,,,,,,
482,0.0248718,-0.00259399,-0.0366211,0.0874329,0.0286865,0.0364685,0.0431824,0.00854492,-0.000915527,,,,,,,,,,,,,,,,,,,,,,,,,,,,,,,,,,,,,,,,,
482,-0.0117493,-0.00183105,-0.0228882,0.00198364,0.0238037,0.0521851,0.0486755,0.0161743,-0.0212097,,,,,,,,,,,,,,,,,,,,,,,,,,,,,,,,,,,,,,,,,
483,0.0152588,-0.00152588,-0.0274658,-0.0161743,0.0405884,0.0401306,0.0411987,0.000915527,0.00305176,,,,,,,,,,,,,,,,,,,,,,,,,,,,,,,,,,,,,,,,,
483,-0.00244141,-0.0302124,-0.00244141,0.085907,0.0100708,-0.0108337,0.0276184,0.00564575,-0.00473022,,,,,,,,,,,,,,,,,,,,,,,,,,,,,,,,,,,,,,,,,
483,0.00808716,0.00183105,-0.00823975,-0.0415039,0.0161743,0.0190735,0.032959,-0.00778198,-0.0216675,,,,,,,,,,,,,,,,,,,,,,,,,,,,,,,,,,,,,,,,,
483,-0.0143433,-0.0289917,0.0267029,0.0439453,-0.0300598,0.0164795,0.0413513,0.0170898,0.00976562,,,,,,,,,,,,,,,,,,,,,,,,,,,,,,,,,,,,,,,,,
483,0.00671387,0.00411987,-0.0120544,0.00640869,-0.00930786,0.0256348,0.0257874,0.000152588,-0.0192261,,,,,,,,,,,,,,,,,,,,,,,,,,,,,,,,,,,,,,,,,
