Frame,RF,VL,BF,TA,SOL,GAS_MED,GAS_LAT,GLUT_MED,GLUT_MAX
914,-0.000762939,-0.0137329,0.00732422,0.00610352,0.0175476,-0.00732422,-0.0219727,0.017395,0.0436401
914,-0.0268555,0.0088501,0.0202942,0.0193787,-0.00396729,0.0205994,0.00518799,0.00457764,-0.00183105
914,0.0152588,0.0222778,-0.0117493,-0.0248718,0.0276184,0.0190735,-0.017395,-0.0149536,0.0137329
914,0.00152588,-0.0102234,-0.00289917,-0.00534058,0.0314331,-0.00335693,-0.0408936,0.00488281,0.0375366
914,-0.00518799,0.0180054,0.0198364,0.0112915,-0.018158,0.0111389,0.00640869,-0.0105286,-0.00137329
914,0.0318909,0.0323486,-0.0138855,-0.0141907,0.0164795,0.00564575,0.0350952,0.00366211,0.00991821
914,0.0393677,0.0062561,-0.00930786,0.0216675,0.030365,0.00244141,0.0466919,0.00167847,0.0337219
914,0.0320435,0.0349426,0.0341797,-0.00579834,0.000457764,-0.0114441,0.0695801,-0.00183105,-0.00167847
914,0.0823975,0.0502014,0.00228882,-0.0115967,0.0439453,0.0413513,0.0442505,0.000762939,0.0257874
914,0.0476074,-0.0263977,-0.00671387,0.000152588,0.00320435,0.00106812,0.0152588,-0.000762939,0.0152588
915,0.0531006,0.0154114,0.0117493,0.00305176,0.00640869,0.00198364,0.0271606,-0.0213623,-0.0123596
915,0.0227356,0.0178528,-0.00839233,0.00640869,0.0271606,0.0114441,0.0050354,-0.0416565,0.0189209
915,-0.0111389,-0.0112915,0.0088501,0.0212097,0.00198364,0.000915527,0.00656128,-0.0292969,0.0323486
915,-0.0392151,0.0111389,0.00167847,-0.0088501,0.00701904,-0.00427246,0.0196838,-0.022583,-0.0151062
915,-0.015564,-0.0212097,-0.017395,0.0286865,0.0370789,0.0144958,-0.00854492,0.0450134,0.00961304
915,-0.00167847,-0.0160217,-0.00350952,0.0163269,0.012207,-0.00915527,-0.00946045,0.0360107,0.0283813
915,-0.0257874,0.0169373,0.03479,-0.00198364,0.010376,0.0250244,0.0288391,0.0119019,-0.00747681
915,0.0245667,0.0253296,0.00778198,-0.00320435,0.00930786,-0.00167847,-0.00549316,0.0192261,0.0227356
915,0.0105286,0.0062561,0.00198364,0.0457764,-0.00518799,-0.00335693,0.037384,0.0260925,0.0219727
915,0.0190735,0.0138855,0.0106812,-0.0050354,0.015564,0.0337219,0.0196838,-0.01297,-0.0119019
916,0.0241089,-0.0196838,-0.010376,-0.0012207,0.0331116,0.0344849,-0.0038147,0.0247192,0.0241089
916,-0.00701904,-0.00946045,0.0161743,0.022583,-0.00274658,-0.0268555,-0.00289917,-0.0170898,0.0169373
916,0.0218201,0.0318909,0.00366211,-0.0282288,-0.00411987,0.00946045,0.0167847,-0.0311279,-0.00839233
916,0.0434875,0.0375366,-0.0209045,0.000915527,0.0415039,0.0125122,0.00518799,0.000305176,0.00579834
916,0.0184631,0.00656128,0.0154114,0.0349426,0.00549316,0.00595093,0.0117493,0.0241089,0.00244141
916,0.017395,0.0128174,0.010376,-0.0157166,-0.00137329,0.0364685,0.0402832,0.022583,0.00869751
916,0.0183105,-0.00778198,-0.0212097,0.00534058,0.0260925,0.0170898,-0.00244141,0.0364685,0.0204468
916,-0.0262451,0.0177002,-0.00427246,0.0186157,-0.00167847,-0.0292969,0.022583,0.0341797,0.0280762
916,-0.0292969,0.00259399,-0.00289917,0.00244141,-0.00473022,0.0152588,0.00335693,0.0106812,0.00808716
916,0.0604248,0.000610352,-0.0419617,0.00259399,0.0088501,0.015564,-0.00183105,0.0698853,0.0389099
917,0.0534058,-0.00137329,0.0285339,-0.00213623,0.0210571,-0.014801,-0.0115967,0.0120544,0.0189209
917,0.0405884,0.00900269,0.0338745,0.00518799,-0.0260925,0.0317383,-0.000152588,-0.00167847,0.0112915
917,0.00946045,0.0358582,0.00442505,0.0163269,0.0120544,-0.0115967,-0.0115967,0.0547791,0.0212097
917,-0.0212097,0.0843811,0.0213623,0.0120544,-0.00793457,0.0119019,0.0297546,0.0212097,-0.0151062
917,0.0254822,0.111542,0.00518799,0.00106812,0.0447083,0.0245667,0.0201416,-0.0245667,0.0112915
917,0.0144958,0.058136,0.0158691,0.015564,0.00778198,0.022583,0.0158691,0.0231934,0.0134277
917,-0.0146484,0.0556946,0.00793457,-0.00457764,-0.00961304,0.012207,0.0384521,0.00488281,-0.0283813
917,-0.00869751,0.0204468,-0.00152588,0.020752,0.0166321,0.00640869,0.00274658,-0.0088501,0.0242615
917,0.0111389,-0.0398254,-0.00366211,0.0263977,0.00793457,-0.00320435,-0.00244141,0.0453186,0.0183105
917,-0.0271606,-0.0292969,0.0335693,0.0210571,-0.00686646,0.00549316,0.0318909,0.0416565,0.00671387
918,0.0120544,-0.0271606,0.00869751,-0.0175476,-0.0169373,0.00259399,-0.0242615,-0.00137329,0.0315857
918,0.0138855,-0.0869751,0.0164795,0.0212097,-0.00961304,-0.00961304,-0.0108337,0.0286865,0.0178528
918,0.0114441,-0.0134277,0.0244141,-0.018158,-0.0378418,-0.0219727,0.0149536,0.0100708,-0.00564575
918,0.0473022,-0.0340271,0.00244141,-0.0108337,-0.000915527,0.0143433,-0.00228882,0.032196,0.0190735
918,0.0268555,-0.0431824,0.0213623,0.0172424,0.00946045,-0.0137329,0.0012207,0.032196,0.027771
918,0.00518799,-0.0105286,0.0149536,0.0050354,-0.00213623,0.00152588,0.0184631,0.000305176,-0.0167847
918,0.000610352,0.00167847,-0.012207,-0.00518799,0.00869751,0.019989,0.0157166,0.0186157,-0.00350952
918,-0.0288391,-0.00839233,0.0132751,0.0151062,0.0100708,0.00564575,0.000915527,0.0286865,-0.00228882
918,-0.0488281,0.0325012,0.00106812,-0.00350952,0.00289917,0.0160217,0.0195312,-0.00732422,-0.0337219
918,0.0169373,0.0109863,-0.0123596,0.0111389,0.000152588,0.0138855,-0.00213623,0.0105286,-0.000457764
919,-0.00915527,0.00213623,0.020752,0.00244141,-0.00579834,0.000457764,0.00152588,0.00610352,-0.0050354
919,-0.00488281,0.0138855,0.0358582,-0.0138855,-0.0170898,0.0352478,0.0263977,0.00488281,0.00335693
919,0.0340271,0.0292969,0.0312805,0.0163269,0.0189209,0.0106812,-0.00350952,0.0257874,0.0231934
919,0.014801,0.0170898,0.0408936,0.0158691,0.00396729,-0.00518799,0.00152588,-0.0062561,0.022583
919,0.0422668,0.0939941,0.042572,0.00518799,0.00686646,0.03479,0.0292969,0.00259399,-0.0177002
919,0.0340271,0.0915527,0.0221252,0.00350952,0.0202942,-0.00808716,-0.0318909,0.0205994,0.027771
919,-0.0471497,0.113831,0.0706482,0.0209045,-0.0108337,-0.00549316,0.00152588,0.0012207,0.0112915
919,-0.0109863,0.0830078,0.0215149,-0.00930786,0.00396729,0.000915527,0.00839233,0.0105286,0.0248718
919,0.0163269,0.0605774,0.0038147,-0.015564,0.0102234,-0.000152588,0.00564575,0.00656128,0.012207
919,-0.00350952,-0.00350952,0.0454712,-0.0265503,-0.0157166,-0.00366211,-0.00335693,-0.00732422,-0.00442505
920,0.0479126,-0.0265503,0.0386047,-0.0497437,-0.0134277,0.027771,0.00900269,-0.00213623,0.0012207
920,-0.00854492,-0.136719,0.0415039,-0.00595093,-0.00259399,0.0038147,0.0120544,0.0115967,0.0164795
920,0.0177002,-0.107422,0.0463867,0.0616455,-0.00930786,0.00228882,0.0198364,-0.00823975,0.000762939
920,0.0253296,-0.0656128,0.0335693,0.0502014,-0.00595093,0.00305176,0.0315857,0.0305176,0.0231934
920,0.0334167,-0.0765991,0.0308228,0.0398254,-0.00808716,-0.0138855,0.0382996,0.0421143,-0.000762939
920,-0.00167847,-0.0375366,0.0469971,-0.0175476,-0.00991821,0.0167847,0.0132751,0.00396729,-0.00396729
920,0.0354004,-0.0408936,0.0332642,-0.0128174,0.0205994,0.0367737,-0.0012207,0.0151062,-0.000305176
920,0.014801,-0.0491333,0.0201416,0.0175476,0.017395,-0.00534058,-0.0131226,0.000915527,0.0294495
920,0.0175476,-0.00137329,0.0160217,-0.00701904,-0.0138855,0.00976562,0.0184631,-0.0167847,-0.0192261
920,0.0247192,0.0376892,0.0274658,0.0190735,0.0247192,0.0144958,-0.0160217,0.0167847,0.0314331
921,0.0137329,0.00930786,0.068512,0.0117493,-0.00854492,-0.0219727,-0.00778198,0.0231934,0.0382996
921,0.0300598,0.06073,0.0389099,-0.0221252,-0.0062561,0.0418091,0.0227356,-0.014801,-0.0158691
921,0.0202942,-0.0312805,0.0389099,0.0189209,0.0259399,-0.000152588,-0.00259399,-0.00305176,-0.00701904
921,0.0238037,-0.0187683,0.0653076,0.0300598,0.0228882,0.00366211,0.00717163,0.019989,0.0114441
921,0.00167847,-0.0131226,0.0440979,-0.0131226,-0.0102234,0.0280762,0.0326538,0.00732422,0.00518799
921,0.0265503,-0.0167847,0.0135803,0.0138855,0.00198364,0.0274658,0.00671387,0.0241089,0.0366211
921,-0.00930786,-0.0198364,0.0296021,-0.00320435,0.0050354,0.00961304,0.0132751,0.0175476,0.00656128
921,0.0228882,0.00518799,0.0364685,-0.00823975,-0.00671387,0.00991821,0.025177,-0.00320435,0.00152588
921,0.0260925,0.0289917,0.0318909,0.019989,-0.00183105,-0.0012207,-0.0205994,0.0416565,0.040741
921,0.0117493,0.0213623,0.0505066,0.0291443,0.00244141,-0.00274658,-0.00320435,0.0242615,0.00213623
922,0.0404358,0.0238037,0.015564,0.00762939,0.0354004,0.0117493,0.0279236,-0.0112915,-0.0170898
922,0.0108337,0.000762939,0.0346375,0.0363159,0.0106812,0.01297,0.000762939,0.0152588,0.000915527
922,-0.027771,0.00656128,-0.00198364,0.0242615,-0.0120544,0.00183105,0.0247192,-0.0231934,-0.00595093
922,-0.00244141,0.0222778,-0.0212097,-0.0102234,0.00686646,0.0132751,0.0141907,-0.0143433,-0.0180054
922,0.0227356,-0.00427246,-0.012207,0.00396729,0.00961304,-0.0128174,-0.0198364,0.025177,0.0408936
922,-0.00534058,-0.00167847,0.0178528,0.00839233,-0.000457764,-0.00259399,-0.0012207,0.0193787,0.0183105
922,0.018158,0.0265503,0.0598145,-0.00518799,-0.00259399,0.0111389,0.0088501,0.0190735,-0.0050354
922,-0.00732422,0.0161743,0.0634766,0.0369263,0.0335693,0.0088501,-0.0164795,0.0120544,0.0242615
922,-0.035553,0.0563049,0.10025,0.00839233,0.0106812,0.022583,0.025177,0.00335693,0.00183105
922,0.0198364,0.0596619,0.0782776,0.00518799,-0.00961304,0.0343323,-0.000152588,0.00564575,0.0166321
923,0.0166321,0.0125122,0.00534058,0.00915527,-0.00701904,0.00320435,-0.000610352,0.0379944,0.0271606
923,-0.00915527,0.0404358,0.0495911,0.0038147,0.0111389,0.0137329,0.0175476,0.0215149,0.0105286
923,0.0288391,0.0764465,-0.0189209,-0.0149536,0.0132751,0.0163269,-0.00305176,-0.0141907,0.0221252
923,-0.0141907,0.00610352,-0.00274658,0.0178528,-0.0105286,0.00366211,-0.0239563,0,0.0195312
923,-0.014801,0.0213623,0.0183105,0.00656128,0.00579834,0.00839233,0.00595093,-0.0115967,0.00839233
923,0.0144958,0.00762939,-0.0088501,-0.0213623,0.00778198,0.0253296,0.00396729,-0.0131226,-0.00411987
923,0.00289917,-0.0105286,-0.00518799,0.0337219,0.0282288,-0.00900269,-0.0231934,0.020752,0.0247192
923,0.0201416,0.00427246,-0.00106812,-0.0114441,0.00976562,0.0350952,-0.0180054,-0.00732422,0.00564575
923,0.0337219,0.0271606,-0.0143433,-0.00488281,-0.00564575,0.0375366,0.00198364,-0.00549316,-0.000610352
923,0.0198364,-0.0141907,0.0189209,0.0245667,0.00900269,0.017395,-0.0109863,0.00930786,0.0260925
924,-0.0163269,-0.00259399,0.068512,-0.00854492,-0.00671387,-0.00778198,0.0012207,-0.0387573,-0.015564
924,0.0126648,0.022583,0.0202942,-0.0088501,0.0312805,0.0375366,0.0012207,0.0286865,0.0350952
924,-0.0100708,0.0337219,0.0296021,0.014801,0.00411987,0.0088501,0.0138855,0.0160217,0.0204468
924,0.0157166,0.0213623,-0.00701904,-0.00244141,-0.0143433,-0.000915527,0.0125122,0.0202942,0.00335693
924,0.0453186,0.0439453,-0.0975037,0.00396729,0.0256348,0.0202942,0.00839233,-0.00427246,0.0198364
924,0.0418091,0.0216675,-0.0639343,0.0367737,0.0192261,-0.0189209,0.000610352,0.0442505,0.0296021
924,0.0302124,0.0532532,0.00701904,0.0265503,0.010376,0.0117493,0.0314331,0.0100708,0.0149536
924,0.035553,0.0497437,0.0698853,-0.00778198,0.0340271,0.00213623,-0.00564575,0.0231934,0.0248718
924,0.0292969,0.0314331,0.0895691,0.0253296,0.00869751,-0.017395,0.0105286,0.0178528,0.00152588
924,-0.0222778,0.0234985,0.119781,-0.000457764,-0.0192261,0.0144958,0.0131226,-0.0106812,-0.0152588
925,0.0320435,-0.00411987,0.0805664,-0.00366211,0.00335693,0.00289917,-0.0268555,-0.00747681,0.0262451
925,0.045166,-0.0134277,0.0285339,0.025177,0.00793457,-0.0140381,-0.0112915,0.00762939,-0.0088501
925,0.0234985,0.00930786,0.0294495,0.0088501,-0.0164795,0.0112915,0.0114441,-0.00167847,-0.0186157
925,-0.00396729,-0.00778198,-0.00335693,-0.00839233,0.0291443,0.0364685,0.00869751,0.0158691,0.0088501
925,-0.0509644,-0.0230408,0.0300598,0.0453186,0.010376,-0.00244141,0.0012207,-0.00350952,0.0276184
925,-0.0305176,-0.015564,-0.0062561,0.00686646,0.0193787,0.0283813,0.00976562,-0.00961304,-0.00579834
925,0.0117493,-0.0386047,-0.0393677,0.00610352,0.0318909,0.0169373,-0.00686646,0.00152588,0.0222778
925,0.00579834,-0.0576782,0.0183105,0.0138855,0.00244141,-0.0276184,-0.00183105,-0.000457764,0.0111389
925,0.0125122,-0.042572,0.0149536,-0.0140381,-0.0137329,0.0109863,0.0126648,-0.0120544,-0.0114441
925,0.0209045,-0.0350952,0.00808716,0.00701904,0.00946045,0.00320435,-0.0219727,0.0253296,-0.00183105
926,-0.0050354,-0.0311279,-0.0210571,0.00411987,-0.0138855,-0.0230408,0.0178528,0.00900269,-0.00396729
926,0.0105286,0.00564575,0.00442505,-0.0274658,-0.0111389,0.0408936,0.0430298,-0.0163269,-0.0117493
926,0.0674438,-0.0228882,-0.0595093,-0.0498962,0.00808716,0.00762939,-0.0158691,0.0158691,0.0306702
926,0.0230408,-0.00610352,-0.0411987,-0.0292969,-0.0154114,-0.0108337,-0.00289917,0.0125122,0.0114441
926,0.0215149,0.0238037,-0.0204468,-0.0520325,0.039978,0.032959,0.0247192,-0.0262451,0.00656128
926,0.015564,-0.00442505,0.0140381,-0.0724792,0.0280762,0.0170898,-0.0230408,0.00839233,0.0143433
926,-0.0106812,-0.010376,-0.00915527,0.105591,0.00198364,-0.0283813,0.0222778,0.00366211,0.0177002
926,0.0117493,0.106354,0.00762939,0.148163,-0.00869751,0.0196838,0.0395203,-0.0088501,-0.0123596
926,0.00518799,0.113068,-0.0187683,0.0958252,0.0219727,-0.00534058,0.000915527,-0.0154114,0.00595093
926,0.00961304,0.112,0.0320435,0.0384521,0.0245667,-0.00671387,0.0209045,0.0248718,0.00442505
927,0.0267029,0.0973511,-0.00823975,-0.0180054,-0.00976562,0.0389099,0.0384521,-0.00350952,0.00488281
927,0.0450134,0.00183105,-0.00823975,0.0241089,0.018158,-0.00717163,-0.00350952,0.0180054,0.0115967
927,-0.0271606,-0.0120544,-0.00457764,0.0337219,0.0393677,0.0138855,-0.000915527,-0.00640869,-0.00823975
927,-0.0244141,-0.0395203,-0.0349426,0.0294495,0.00808716,0.0302124,-0.00488281,0.00305176,-0.00473022
927,-0.00976562,-0.0489807,-0.0675964,0.0126648,0.018158,-0.0152588,0.00991821,0.00671387,0.0247192
927,-0.0358582,-0.0500488,-0.0230408,0.0253296,-0.010376,-0.0138855,0.0183105,-0.0289917,-0.0175476
927,-0.0183105,-0.0268555,-0.0318909,0.0219727,0.00198364,0.0132751,-0.012207,-0.0198364,0.00335693
927,-0.0169373,-0.03479,-0.0212097,0.00991821,0.00579834,-0.00274658,-0.0161743,0.0143433,0.0306702
927,-0.0248718,-0.0215149,-0.0134277,0.0192261,-0.00396729,-0.00289917,0.0134277,0.0257874,0.01297
927,0.0166321,0.0117493,-0.0544739,0.0100708,0.00854492,0.0283813,0.0164795,-0.0137329,-0.0109863
928,0.025177,-0.043335,-0.0717163,0.01297,0.0297546,0.000915527,0.000152588,0.0320435,0.0422668
928,-0.00106812,0.0149536,-0.0157166,-0.0326538,-0.00183105,0.00991821,0.0108337,0.0109863,0.0132751
928,0.00793457,0.0299072,-0.035553,-0.00823975,0.0219727,0.0300598,0.0263977,-0.0108337,-0.00534058
928,0.00656128,-0.0140381,-0.0491333,0.0050354,0.0137329,-0.00335693,0.0111389,0.0302124,0.0299072
928,-0.0247192,0.0138855,0.0212097,-0.00793457,-0.0189209,-0.0151062,0.00335693,0.0151062,-0.0050354
928,0.0302124,0.00823975,-0.0151062,0.00228882,0.00900269,0.0369263,-0.000915527,-0.00152588,0.0216675
928,0.0265503,-0.00900269,0.0143433,0.0527954,0.015564,0.00488281,-0.00961304,0.0161743,0.0213623
928,0.0144958,0.00915527,0.0267029,-0.0276184,-0.0263977,0.0102234,0.0291443,0.00656128,0.01297
928,0.00259399,-0.00152588,0.010376,0.0247192,0.0224304,0.0170898,-0.00411987,0.00946045,0.01297
928,0.0444031,-0.0131226,0.0178528,0.0569153,0.0332642,0.00549316,-0.00717163,0.0172424,0.0271606
929,0.0106812,-0.00671387,0.050354,0.0352478,0.00305176,0.0128174,0.0204468,-0.0202942,0.0112915
929,0.0285339,0.0442505,0.0160217,0.0146484,0.0125122,0.00732422,0.00427246,-0.0192261,0.0196838
929,0.0152588,0.0473022,-0.00839233,0.0619507,0.0175476,0.00366211,0.00442505,0.000305176,0.0296021
929,-0.00366211,0.108643,-0.0105286,-0.0143433,-0.0265503,0.00320435,0.0340271,-0.020752,-0.0143433
929,0.00396729,0.1091,-0.0117493,-0.0950623,0.0144958,0.010376,-0.00106812,0.00686646,0.0268555
929,-0.000305176,0.0842285,-0.00213623,-0.0224304,0.00518799,-0.0111389,0.0038147,0.032196,0.0163269
929,-0.00747681,0.098877,0.00640869,-0.0250244,-0.00274658,0.0189209,0.0242615,-0.00747681,0.00976562
929,0.00823975,0.0376892,0.00656128,-0.00549316,0.0193787,0.0271606,0.0106812,0.0202942,0.0428772
929,-0.0289917,0.000457764,0.0146484,-0.0115967,-0.0126648,-0.0050354,0.0216675,0.0140381,0.0198364
929,0.0265503,0.00213623,0.0259399,-0.0552368,-0.00579834,0.032196,0.0190735,-0.00259399,0.0219727
930,0.0183105,-0.0556946,-0.0062561,-0.0482178,0.0395203,-0.00976562,-0.0360107,0.0218201,0.0231934
930,0.0430298,-0.0671387,0.0317383,-0.0553894,0.0131226,-0.0157166,-0.00686646,0.0108337,0.00183105
930,0.0538635,-0.0556946,-0.0392151,-0.00717163,0.0213623,0.0445557,0.000305176,-0.0230408,-0.0126648
930,0.0311279,-0.106659,-0.0375366,0.0874329,0.00808716,0.0193787,-0.0222778,-0.00518799,0.0360107
930,0.00259399,0.045166,-0.018158,0.0233459,-0.00457764,-0.00442505,-0.0119019,-0.0158691,0.00961304
930,0.0538635,0.192108,-0.0317383,-0.0117493,0.00289917,0.010376,-0.0537109,-0.0105286,0.0346375
930,0.0205994,0.196686,-0.0126648,-0.0172424,0.0216675,-0.0115967,-0.0732422,0.0152588,0.0340271
930,-0.0325012,0.140686,0.0315857,-0.0427246,0.022583,0.0169373,-0.0431824,-0.00518799,0.0233459
930,0.0190735,0.0340271,-0.0317383,0.0512695,0.0361633,0.017395,-0.00778198,0.0271606,0.0524902
930,0.00335693,-0.0830078,-0.0453186,0.138092,0.0186157,0.0161743,0.00808716,0.0479126,0.042572
931,-0.00534058,-0.115051,-0.0341797,0.0602722,-0.032196,0.0242615,0.0578308,0.00762939,-0.0219727
931,0.0254822,-0.0723267,-0.0283813,0.0195312,-0.0126648,-0.0126648,0.0125122,0.0267029,0.00473022
931,0.00152588,-0.102539,-0.0158691,0.0175476,-0.00320435,-0.00137329,0.0144958,0.00701904,-0.00320435
931,-0.0404358,-0.0621033,0.0123596,-0.0364685,0.000762939,0.0109863,0.0419617,-0.0386047,-0.0323486
931,-0.0112915,-0.0364685,-0.0163269,0.010376,0.00869751,0.0253296,0.0119019,-0.0157166,-0.00976562
931,-0.0231934,-0.0697327,0.0105286,0.098114,-0.00457764,0.000152588,0.0344849,0.014801,0.00198364
931,0.0260925,-0.0195312,0.0190735,0.092926,-0.0234985,0.0205994,0.025177,-0.000457764,-0.00411987
931,0.0726318,-0.0146484,-0.0189209,0.0166321,-0.010376,0.0276184,0.0282288,0.0250244,0.0105286
931,-0.018158,0.0216675,0.0128174,0.0119019,-0.0260925,-0.018158,0.0340271,0.00946045,0.0308228
931,-0.0128174,0.101929,0.000610352,-0.00610352,0.00411987,0.0137329,0.0114441,0.0117493,0.0238037
932,0.0154114,0.0794983,-0.0831604,0.110779,0.0344849,-0.0125122,0.00411987,0.0494385,0.0538635
932,-0.0192261,0.0575256,-0.0367737,0.0259399,0.0317383,0.0115967,0.0222778,0.0384521,0.0221252
932,0.0012207,0.0648499,-0.0297546,-0.0375366,-0.000152588,0.0132751,0.0286865,0.00289917,0.0128174
932,0.0370789,0.0495911,-0.0704956,-0.0473022,0.0427246,0.00152588,-0.00854492,0.0297546,0.0178528
932,0.00274658,0.00991821,-0.0138855,0.00137329,-0.00808716,-0.012207,0.00778198,0.0294495,0.0238037
932,-0.0271606,-0.0308228,0.00335693,-0.00671387,-0.00686646,0.0216675,0.00869751,0.0195312,-0.0146484
932,-0.0268555,-0.0894165,0.00137329,0.0143433,0.0180054,0.0305176,0.000610352,0.0344849,0.0234985
932,-0.0234985,-0.0790405,0.0434875,-0.0108337,-0.00183105,0.0328064,0.0418091,-0.0100708,-0.0135803
932,0.0372314,-0.068512,0.00640869,0.0140381,0.00335693,0.0111389,0.0271606,0.0138855,-0.0227356
932,0.0163269,-0.102997,0.0234985,-0.0102234,0.01297,-0.00320435,-0.0180054,0.040741,0.0219727
933,0.037384,-0.102081,0.0311279,-0.0460815,-0.0350952,-0.00366211,-0.00320435,0.00701904,-0.010376
933,0.0506592,-0.0605774,0.00183105,-0.0335693,0.0222778,0.0209045,0.000152588,0.00564575,0.00595093
933,-0.0309753,-0.0192261,0.0192261,0.0245667,0.0134277,-0.0088501,-0.0334167,0.0228882,0.0111389
933,-0.00564575,0.0283813,0.0141907,-0.00320435,-0.0195312,0.00213623,-0.00411987,-0.01297,0.00106812
933,0.0283813,0.0518799,0.020752,-0.00427246,0.00183105,0.0421143,-0.00442505,-0.00274658,0.00671387
933,0.00823975,0.0271606,-0.00305176,0.0198364,0.0160217,0.00183105,0.00732422,0.0289917,0.0170898
933,-0.000610352,0.0357056,0.0267029,-0.012207,-0.00671387,0.0265503,0.025177,0.0134277,-0.00686646
933,0.0210571,0.0260925,0.0115967,0.00686646,0.0238037,0.0250244,-0.00518799,0.010376,0.0253296
933,-0.0231934,0.0570679,0.0346375,0.0120544,-0.0189209,0.000457764,0.000610352,0.012207,0.0254822
933,-0.00213623,0.085907,0.0331116,0.0050354,-0.0311279,0.0105286,0.0317383,0.00137329,-0.0259399
934,0.00579834,0.0566101,0.0436401,0.00854492,0.022583,0.0230408,0.00549316,0.018158,0.0354004
934,-0.00900269,0.0317383,0.0375366,0.000305176,-0.00961304,-0.00595093,-0.00457764,-0.0012207,0.0187683
934,-0.0102234,0.0769043,0.0645447,-0.00579834,-0.00534058,0.0260925,0.0160217,-0.0270081,0.0149536
934,0.0462341,0.0320435,0.0276184,0.0158691,0.0334167,0.027771,0.00549316,0.0279236,0.0146484
934,0.0160217,0.027771,0.0474548,0.0137329,0.00854492,0.00427246,0.012207,0.0143433,-0.00656128
934,0.0221252,0.0247192,0.0132751,0.0169373,0.00320435,0.0177002,0.0137329,-0.0132751,-0.00213623
934,0.0692749,-0.0198364,0.0201416,0.00518799,0.0248718,0.0363159,0.0012207,0.0201416,0.0341797
934,0.0398254,-0.0598145,0.0190735,0.0128174,0.00976562,0.00411987,0.0137329,0.0186157,0.00442505
934,0.0389099,0.0866699,0.012207,0.00961304,-0.00549316,-0.00137329,0.0334167,-0.0224304,-0.00167847
934,0.0567627,0.211029,-0.0100708,0.012207,-0.00213623,0.00610352,-0.00701904,0.0218201,0.0302124
935,0.030365,0.232239,0.04776,0.0111389,0.00762939,-0.0157166,-0.00549316,0.00839233,0.0253296
935,0.0392151,0.141907,0.0396729,0.00778198,-0.0274658,0.0256348,0.045929,-0.00976562,0.00106812
935,0.00961304,-0.00488281,0.00366211,0.0100708,0.0413513,0.00579834,-0.0062561,0.00320435,0.0338745
935,-0.0158691,-0.0888062,0.0192261,0.020752,0.0360107,0.00534058,0.0405884,0.00457764,-0.0134277
935,0.0456238,-0.0973511,0.0143433,-0.0187683,-0.00228882,0.018158,0.0308228,0.00274658,0.0012207
935,0.0669861,-0.123138,-0.000457764,0.0154114,0.0291443,0.00762939,0.00137329,0.0143433,0.0112915
935,0.0131226,-0.080719,0.06073,-0.00717163,-0.00747681,-0.0135803,-0.000305176,0.0236511,0.00686646
935,0.0358582,-0.0498962,0.0349426,-0.0050354,0.0108337,0.00976562,-0.00961304,0.000762939,-0.0126648
935,0.00930786,-0.0541687,0.0190735,0.0311279,0.017395,0.0102234,-0.0163269,-0.00244141,0.0189209
935,-0.0546265,-0.0456238,0.0512695,0.0100708,-0.0117493,0.0152588,0.0300598,-0.00152588,-0.00686646
936,-0.0296021,0.00137329,-0.000762939,0.0160217,0.0331116,0.0279236,0.0088501,0.00808716,-0.00442505
936,0.00320435,-0.0469971,0.0563049,0.0422668,0.0135803,-0.00701904,0.0146484,0.0306702,0.0444031
936,-0.0123596,0.0102234,0.0592041,0.0320435,0.00366211,-0.00366211,0.0315857,0.00183105,0.0466919
936,0.0088501,0.0382996,0.0553894,0.0213623,0.0299072,0.00152588,0.00305176,-0.015564,0.00854492
936,0.0346375,0.0233459,0.0161743,0.0177002,0.00915527,-0.00595093,-0.0175476,0.0305176,0.0491333
936,0.022583,0.0183105,-0.00534058,0.00244141,-0.0146484,0.0164795,0.0288391,-0.0262451,0.00823975
936,0.0474548,-0.0125122,-0.0309753,-0.0224304,0.00778198,0.00732422,-0.0109863,-0.0158691,0.0151062
936,0.00747681,-0.0234985,0.0100708,0.0192261,-0.0195312,-0.0212097,0.00152588,0.0132751,0.0462341
936,0.0228882,-0.00534058,0.04776,0.0192261,-0.0132751,-0.010376,0.0134277,-0.0134277,-0.032196
936,0.0364685,-0.00808716,0.0314331,-0.00335693,0.019989,0.0286865,0.00854492,0.00701904,0.0166321
937,0.00549316,-0.0509644,0.0862122,-0.017395,-0.00839233,-0.0201416,0.0152588,0.0125122,0.000762939
937,-0.0332642,-0.0105286,0.0723267,-0.0088501,-0.0105286,0.0187683,0.0161743,-0.0366211,-0.0331116
937,-0.0271606,-0.0114441,0.0161743,-0.0125122,0.0254822,0.0241089,-0.0238037,-0.00106812,-0.00427246
937,-0.045166,-0.0378418,0.0547791,0.00991821,0.00457764,-0.0183105,0.00457764,0.0160217,-0.00473022
937,-0.019989,0.0263977,0.0941467,-0.00686646,-0.00747681,0.0189209,0.000305176,-0.00396729,-0.00564575
937,-0.0253296,0.0578308,0.0418091,0.00228882,0.0253296,-0.00595093,-0.0268555,0.00793457,0.0088501
937,-0.0204468,0.040741,0.0270081,0.0300598,0.00778198,0.00518799,-0.00595093,0.0144958,-0.00793457
937,-0.0260925,0.0563049,0.0302124,0.00244141,-0.00686646,0.0184631,0.0106812,-0.00534058,-0.0126648
937,0.0296021,0.0309753,-0.0115967,0.00762939,0.0234985,0.0265503,-0.00320435,0.0198364,0.020752
937,-0.00442505,-0.0263977,0.0469971,0.0361633,0.000457764,-0.00946045,0.00930786,0.00823975,0.018158
938,0.0454712,0.0244141,0.0495911,0.0102234,0.00961304,0.0283813,0.0135803,-0.000305176,0.0276184
938,0.0657654,0.0106812,0.0396729,0.00717163,0.0389099,0.0140381,-0.0088501,0.0218201,0.0196838
938,0.022583,0.00854492,0.0700378,0.0183105,-0.00106812,-0.0224304,0.0247192,0.000610352,0.000915527
938,0.0198364,0.0193787,0.0421143,-0.00976562,-0.00595093,0.00488281,-0.00396729,-0.0257874,0.0198364
938,0.0386047,-0.0256348,0.0234985,0.0062561,-0.0138855,0.00762939,-0.0230408,0.0219727,0.0531006
938,-0.0038147,-0.0285339,0.0553894,0.0123596,0.00106812,-0.0157166,0.00442505,0.00366211,0.0332642
938,0.0386047,-0.0140381,-0.0012207,-0.0123596,-0.00976562,0.0209045,0.020752,-0.00808716,0.00961304
938,0.0456238,-0.0332642,0.0239563,0.0234985,0.0248718,-0.0180054,-0.0265503,0.0250244,0.0427246
938,0.0135803,-0.0416565,0.0317383,0.0137329,0.00488281,0.0216675,0.0309753,0.00823975,0.000762939
938,0.0286865,0.00259399,-0.00534058,0.00152588,0.0202942,0.015564,0.0134277,0.0218201,0.0012207
939,0.00518799,0.0125122,0.0152588,0.0344849,0.00289917,0.000610352,-0.00137329,-0.00732422,0.0038147
939,-0.00839233,0.129242,0.0370789,0.0149536,0.00595093,0.0088501,0.0213623,0.000305176,-0.0189209
939,0.0180054,0.172882,0.0376892,-0.0125122,0.00183105,0.0189209,-0.0320435,-0.0012207,-0.00411987
939,0.0288391,0.110474,0.0337219,0.00106812,0.00671387,0.00152588,-0.00823975,0.0242615,0.0125122
939,0.0175476,0.0680542,0.0154114,-0.00152588,-0.00930786,0.00534058,0.0346375,-0.0274658,-0.00946045
939,0.032196,0.0402832,0.00427246,-0.0213623,0.00244141,0.0219727,0.00396729,-0.0119019,0.0137329
939,0.00320435,-0.00305176,0.00762939,0.0201416,0.0111389,-0.00717163,0.00534058,0.00991821,0.0317383
939,-0.0228882,-0.00289917,0.0205994,-0.0111389,-0.0114441,0.0282288,0.0350952,0.0149536,0.00427246
939,0.00244141,-0.00518799,-0.0106812,-0.00198364,0.010376,0.0213623,-0.00579834,-0.0210571,0.0393677
939,-0.00900269,-0.040741,-0.0262451,0.0260925,-0.0062561,-0.019989,-0.0135803,0.0265503,0.025177
940,0.00595093,-0.0198364,-0.0350952,-0.00152588,0.000305176,0.00610352,0.0187683,0.0141907,0.0117493
940,0.0418091,-0.050354,-0.0213623,-0.00747681,0.0466919,0.0216675,-0.0166321,0.00335693,0.0112915
940,-0.000915527,-0.0737,0.00686646,0.0184631,0.00350952,0.00656128,-0.00244141,0.0283813,0.0328064
940,-0.0062561,-0.0460815,-0.01297,0.00213623,-0.00686646,0.0158691,0.0187683,0.000457764,0.00366211
940,0.0108337,-0.0244141,-0.0163269,0.014801,0.0215149,0.0239563,-0.0144958,0.0109863,0.0267029
940,0.0167847,-0.00640869,-0.0375366,0.0271606,0.0248718,-0.00488281,0.00518799,0.0357056,0.022583
940,-0.000762939,0.0245667,-0.0439453,0.0117493,0.00244141,0.0128174,0.0238037,-0.00793457,0.025177
940,0.0486755,0.0224304,-0.0590515,0.00396729,0.00335693,0.0254822,0.0157166,-0.00701904,0.0311279
940,0.0143433,-0.0195312,-0.0109863,0.0254822,0.0112915,-0.0128174,0.000762939,0.0228882,0.0259399
940,0.00747681,0.0161743,0.0253296,-0.00778198,-0.0138855,0.0288391,0.0050354,-0.00793457,0.0012207
941,0.0440979,0.0442505,0.0152588,-0.00335693,-0.0038147,0.00106812,0.0050354,0.00976562,0.00152588
941,0.0158691,0.0289917,0.00915527,0.0154114,0.0318909,0.00106812,-0.0152588,0.00610352,-0.0125122
941,0.0131226,0.0398254,0.0680542,0.0149536,0.00595093,0.0492859,0.0106812,0.00289917,-0.0193787
941,0.0402832,0.057373,0.014801,0.00366211,0.0175476,0.0465393,-0.000305176,0.00579834,0.00686646
941,-0.0106812,0.000610352,0.0195312,0.0227356,0.0109863,0.00198364,0.0231934,0.0410461,0.0152588
941,-0.00488281,0.0143433,0.0100708,0.0128174,-0.0088501,0.0250244,0.0178528,-0.00961304,-0.00488281
941,0.0279236,-0.00274658,-0.0126648,-0.000762939,0.0292969,0.0192261,-0.00839233,0.00961304,0.0115967
941,-0.0131226,-0.000762939,-0.0378418,0.0358582,0.00305176,-0.027771,-0.00961304,0.0296021,-0.00915527
941,-0.0140381,0.0180054,-0.0062561,-0.000915527,0.0131226,-0.0012207,0.00762939,-0.00106812,-0.0439453
941,0.0253296,-0.000457764,0.00961304,-0.00396729,0.015564,0.018158,-0.00778198,0.0170898,0.00411987
942,0.0140381,-0.0305176,0.0495911,0.0167847,-0.00427246,-0.00778198,0.00137329,0.043335,-0.00106812
942,0.025177,0.00778198,0.0593567,0.00930786,0.000762939,-0.0108337,0.0160217,0.00457764,0.017395
942,0.018158,0.0177002,0.0131226,0.0149536,0.0308228,0.00549316,0.000457764,0.000915527,0.0256348
942,-0.00564575,0.0219727,-0.0236511,0.0248718,0.0178528,-0.0300598,0.00961304,0.01297,0.00244141
942,-0.0192261,0.0253296,-0.0245667,0.0178528,-0.0109863,-0.00732422,-0.00137329,-0.0105286,0.00152588
942,0.0164795,0.0382996,-0.0520325,0.0201416,0.0323486,0.000915527,-0.0401306,-0.0216675,0.0190735
942,-0.0231934,0.0393677,-0.0216675,0.0222778,0.0105286,-0.0205994,0.00198364,0.0151062,-0.0192261
942,-0.0178528,0.0482178,0.00823975,0.0350952,-0.000152588,-0.00747681,0.0108337,0.0088501,-0.000305176
942,0.0193787,0.00762939,0.00457764,0.0190735,0.0050354,0.0169373,-0.0253296,0.0274658,0.0411987
942,-0.00656128,-0.0428772,0.017395,0.0216675,0.0238037,0.00320435,0.0315857,0.0495911,0.00839233
943,0.0239563,0.00198364,0.00930786,-0.00366211,-0.00686646,0.012207,0.0187683,0.01297,0.000610352
943,0.0343323,0.00839233,-0.0172424,0.00396729,0.0271606,0.00823975,-0.0169373,0.0268555,0.0402832
943,-0.00854492,0.0166321,-0.0195312,0.00488281,-0.00732422,-0.00350952,0.00640869,0.0038147,0.0088501
943,0.0427246,0.0823975,-0.038147,0.00656128,-0.000915527,0.0205994,0.0152588,-0.0271606,0.00350952
943,0.0332642,0.0769043,-0.0750732,-0.000915527,0.0170898,0.0161743,0.00900269,0.00854492,0.0357056
943,0.0360107,0.0721741,-0.0239563,-0.0210571,-0.00686646,0.000305176,0.0242615,0.0218201,0.0273132
943,0.0260925,0.0561523,0.0198364,0.0184631,0.00762939,0.0109863,0.00610352,-0.00595093,0.0160217
943,0.0453186,0.0131226,-0.0205994,0.0315857,0.00793457,-0.000457764,0.00183105,0.0141907,0.0495911
943,0.00152588,-0.000762939,-0.022583,0.0404358,0.00732422,-0.0112915,0.0180054,0.0151062,0.0123596
943,0.0137329,-0.0218201,-0.0636292,0.00900269,0.0120544,0.0231934,0.0292969,0.0120544,0.0233459
944,-0.0161743,-0.105591,-0.132141,0.0227356,-0.000152588,0.0115967,0.0149536,0.0149536,0.0396729
944,-0.0495911,-0.121918,-0.113373,0.0395203,0.000152588,0.0227356,0.0244141,-0.0393677,0.0187683
944,0.00808716,-0.030365,-0.114136,-0.0218201,-0.0012207,0.0062561,0.00198364,-0.0273132,-0.00274658
944,0.037384,0.0137329,-0.0346375,-0.0144958,0.020752,0.0100708,-0.0141907,0.00411987,0.0221252
944,-0.00946045,0.0328064,0.0814819,0.0050354,0.00473022,0.00396729,0.0149536,-0.0132751,0.0120544
944,-0.0250244,0.0764465,0.0976562,-0.0476074,0.00793457,0.020752,0.0123596,-0.00854492,-0.00640869
944,0.0242615,0.0497437,0.108032,0.0224304,0.0289917,0.01297,0.00106812,0.0143433,0.0204468
944,-0.00579834,0.0479126,0.0732422,0.0749207,-0.0012207,-0.000610352,0.0480652,0.0172424,-0.00274658
944,-0.000762939,-0.00747681,0.00411987,0.0398254,-0.00762939,0.0276184,0.0160217,0.0314331,0.0393677
944,0.0119019,-0.119934,-0.0111389,0.0241089,0.00823975,-0.00457764,-0.0100708,0.0144958,0.0590515
945,0.00167847,-0.101318,0.0283813,0.0308228,0.0224304,-0.0115967,0.0202942,-0.019989,0.00396729
945,0.0323486,-0.0860596,0.0428772,-0.0192261,0.0193787,0.0210571,-0.00228882,-0.0286865,0.0239563
945,0.0180054,-0.105438,0.0567627,0.0190735,0.00152588,-0.0117493,-0.00793457,0.0062561,0.0386047
945,0.017395,-0.108795,0.0593567,0.0161743,0.0109863,0.00259399,0.0218201,-0.025177,0.0242615
945,0.0300598,-0.0270081,0.0163269,-0.00900269,0.0234985,0.0189209,0.00701904,-0.0134277,0.0273132
945,0.00183105,0.0413513,0.0164795,0.0299072,0.0109863,0.00701904,-0.00534058,-0.000457764,0.032959
945,-0.00335693,0.0846863,0.019989,0.00808716,0.0038147,0.0062561,0.0279236,-0.025177,-0.0100708
945,0.0201416,0.0965881,0.00198364,-0.00839233,0.0088501,0.0357056,-0.0187683,-0.0395203,-0.0158691
945,0.0186157,0.0636292,-0.00900269,0.0241089,0.00717163,-0.0120544,-0.00137329,0.0273132,-0.0126648
945,0.00198364,0.0511169,0.0152588,0.0279236,-0.0341797,-0.0119019,0.00564575,-0.00839233,-0.00396729
946,0.037384,0.0642395,0.000457764,0.0308228,-0.0205994,0.0306702,0.0123596,0.0222778,0.00518799
946,0.0233459,0.0656128,0.0270081,0.0585938,0.0250244,-0.00213623,0.0140381,0.0268555,-0.00610352
946,0.0114441,0.0727844,0.0170898,0.0415039,-0.0248718,0.00549316,0.0230408,0.0228882,-0.0276184
946,0.0579834,0.0596619,-0.00518799,-0.00595093,0.0254822,0.062561,0.0161743,0.018158,-0.0111389
946,0.0344849,0.00976562,0.0102234,-0.0125122,0.0360107,0.00473022,0.0265503,0.0587463,0.0125122
946,0.0128174,0.0106812,0.0219727,-0.0585938,-0.000915527,0.00686646,0.0222778,0.0164795,0.00137329
946,-0.0202942,-0.00488281,-0.00106812,-0.0180054,0.0279236,0.000457764,-0.0128174,0.00427246,0.0138855
946,-0.0169373,-0.0540161,0.027771,-0.00473022,0.0115967,-0.00991821,-0.0154114,0.0619507,-0.00244141
946,-0.0308228,-0.0471497,0.0302124,-0.0125122,-0.00762939,0.0131226,0.0125122,0.0088501,-0.0183105
946,0.00274658,-0.0088501,-0.00244141,-0.0190735,-0.0169373,0.0320435,-0.00869751,0.0117493,0.0323486
947,0.000457764,-0.0318909,-0.0213623,-0.00396729,0.0300598,-0.00183105,0.0305176,0.0502014,0.0190735
947,-0.00595093,0.0447083,0.00335693,-0.00747681,0.00106812,0.0396729,0.00946045,0.0268555,-0.00671387
947,0.0239563,0.0106812,-0.0241089,0.0195312,0.0202942,0.0318909,0.00167847,0.0787354,0.00946045
947,-0.0294495,0.0157166,0.0125122,0.0291443,-0.0144958,-0.015564,-0.00366211,0.0315857,-0.0239563
947,-0.0106812,0.0384521,0.00289917,-0.00808716,-0.0132751,0.0296021,0.012207,-0.000457764,-0.010376
947,0.0296021,0.030365,-0.000457764,0.0379944,0.0236511,0.018158,-0.00946045,0.0384521,-0.00274658
947,0.0288391,0.0259399,0.0100708,0.0201416,-0.0257874,-0.00915527,0.0354004,0.0276184,-0.0350952
947,0.0392151,0.0428772,-0.0111389,-0.0253296,-0.0299072,0.0111389,0.00686646,0.0157166,-0.0149536
947,0.0138855,-0.0012207,-0.0331116,-0.032959,0.00244141,-0.01297,-0.00732422,0.0205994,0.0387573
947,0.012207,-0.030365,0.0527954,0.0112915,-0.0109863,0.0137329,-0.000915527,0.0563049,0.00823975
948,0.0474548,0.00869751,0.0413513,-0.00778198,0.0115967,0.0186157,0.0152588,0.0241089,-0.0125122
948,0.0567627,-0.00457764,0.0190735,0.0177002,0.0457764,0.00259399,-0.00701904,0.0288391,0.030365
948,0.0100708,0.0305176,0.0360107,0.0138855,-0.00961304,0.00640869,0.0285339,0.0227356,0.0152588
948,0.0138855,0.0561523,0.0196838,-0.00747681,0.00167847,0.0411987,0.0151062,0.0382996,0.00488281
948,-0.00289917,0.0289917,-0.0305176,-0.00213623,0.0134277,0.0247192,0.000915527,0.0234985,0.0396729
948,-0.0195312,0.0166321,-0.0143433,-0.00640869,0.0109863,0.00244141,0.00991821,0.0120544,0.00396729
948,0.00961304,0.0411987,-0.0292969,-0.00228882,0.0274658,0.0312805,-0.00411987,-0.00961304,-0.0102234
948,0.0186157,-0.00671387,0.00762939,0.0212097,0.00976562,-0.0135803,-0.0062561,0.00640869,0.0280762
948,-0.0115967,0.00686646,0.0299072,0.0349426,0.00473022,0.00579834,0.0177002,-0.00305176,0.0164795
948,0.04776,0.0495911,0.0210571,0.00686646,0.0382996,0.0228882,0.00900269,-0.0186157,0.0062561
949,0.0320435,0.0184631,0.00808716,0.018158,0.0296021,0.00259399,-0.0109863,0.018158,0.0311279
949,-0.00442505,0.0436401,0.080719,0.0050354,-0.0105286,0.00869751,0.0100708,-0.0106812,0.0106812
949,-0.0192261,0.00564575,0.0312805,-0.00289917,0.00747681,0.0311279,0.00213623,-0.0212097,0.0154114
949,-0.00167847,-0.00289917,-0.0193787,0.0288391,0.0267029,0.0183105,-0.015564,-0.0161743,0.027771
949,-0.00427246,-0.014801,0.0170898,0.00274658,-0.0315857,0.017395,0.017395,-0.0193787,-0.00488281
949,0.0196838,0.00747681,-0.0283813,-0.0213623,0.00152588,0.020752,0.000305176,-0.00656128,0.00793457
949,0.027771,0.0419617,-0.0241089,0.00579834,0.0233459,0.00900269,0.00183105,0.00427246,0.0149536
949,0.0198364,0.0904846,-0.0112915,0.00869751,-0.00869751,0.0334167,0.0250244,-0.00732422,-0.0158691
949,-0.00701904,0.0846863,0.00473022,0.0105286,0.0408936,0.0305176,-0.0222778,-0.0111389,-0.0050354
949,0.00991821,0.00549316,-0.0106812,-0.00183105,0.00213623,0.0132751,0.00747681,0.000915527,0.0106812
950,0.0267029,-0.0134277,0.00457764,0.00427246,0.00778198,0.0114441,0.0271606,-0.0183105,-0.0175476
950,0.0506592,-0.00854492,-0.0219727,-0.0105286,0.0128174,0.00534058,-0.00106812,0.00930786,0.0144958
950,0.012207,0.00366211,0.0189209,0.0216675,0.0154114,0.0236511,0.0012207,0.0157166,0.00610352
950,0.0138855,0.0354004,0.0132751,0.00488281,0.00274658,0.0201416,0.0315857,-0.0193787,-0.0198364
950,0.0416565,0.132904,0.0521851,-0.00915527,0.00350952,0.00946045,0.00640869,-0.00320435,0.0262451
950,0.0234985,0.218353,0.0491333,0.0189209,0.0149536,-0.00656128,0.00335693,0.000305176,0.0296021
950,0.0140381,0.174255,0.0328064,0.00411987,-0.0164795,0.017395,0.0306702,-0.014801,-0.00656128
950,0.020752,0.0508118,0.0213623,0.00213623,0.0239563,0.0250244,-0.0062561,-0.0126648,0.0343323
950,0.0109863,-0.0535583,0.0138855,0.0234985,0.0143433,0.0216675,0.00671387,0.0177002,0.0308228
950,0.0358582,-0.08255,0.0198364,-0.00793457,-0.00976562,-0.00778198,0.0279236,0.00366211,0.0193787
951,0.0494385,-0.134277,-0.0152588,0.00350952,0.00732422,0.0131226,-0.0222778,-0.000152588,0.0364685
951,0.0222778,-0.170746,0.0131226,0.0288391,0.00198364,-0.0297546,0.00442505,0.00808716,0.00976562
951,0.00701904,-0.132904,0.0328064,-0.00915527,-0.0144958,0.0102234,0.0157166,-0.0354004,0.000457764
951,0.0337219,-0.0863647,0.00366211,0.0213623,0.0222778,0.0149536,-0.00976562,-0.0296021,0.0283813
951,-0.0202942,-0.0950623,0.010376,-0.00717163,-0.000915527,0.00671387,0.00183105,0.00762939,0.0440979
951,-0.0379944,-0.045166,0.00717163,-0.0138855,-0.0166321,0.00579834,0.00915527,-0.0488281,0.0123596
951,-0.0250244,-0.0700378,0.00274658,0.0349426,0.0350952,0.00305176,-0.0158691,0.0102234,0.0576782
951,-0.0996399,-0.0634766,0.0476074,0.00854492,-0.0088501,-0.00320435,0.0132751,-0.00305176,0.00518799
951,-0.0482178,-0.0814819,0.0241089,-0.00808716,0.00991821,0.027771,0.0245667,0.0248718,-0.0012207
951,-0.0125122,-0.106506,-0.0186157,-0.00274658,0.0154114,0.0193787,-0.0109863,0.0192261,0.0430298
952,-0.0280762,-0.0611877,-0.00274658,0.0126648,0.0198364,0.0117493,0.0112915,0.00717163,0.00610352
952,0.0259399,-0.0172424,-0.00976562,-0.0169373,0.00976562,0.0408936,0.00350952,-0.022583,0.00488281
952,0.0344849,-0.000305176,0.00411987,0.00457764,0.0050354,0.00961304,-0.00656128,0.0334167,0.0408936
952,0.0360107,-0.00518799,0.0518799,-0.0126648,-0.0143433,-0.00457764,0.0274658,0.00778198,-0.00946045
952,0.0502014,0.0141907,0.0158691,-0.0169373,0.00320435,0.0154114,0.0177002,-0.0115967,-0.022583
952,0.0463867,-0.0514221,-0.00717163,0.0498962,0.0267029,0.0112915,-0.00442505,0.0180054,0.0239563
952,0.00701904,-0.0772095,-0.000762939,0.0050354,0.0128174,0.0158691,0.0248718,0.0108337,-0.022583
952,0.0224304,-0.0161743,0.0349426,0.00106812,0.0164795,0.0160217,-0.0102234,-0.00366211,-0.0115967
952,0.0389099,0.00335693,0.00732422,0.0140381,0.0292969,-0.00915527,-0.00289917,0.0283813,-0.000915527
952,-0.00488281,0.0157166,0.0344849,-0.00106812,0.0283813,0.0218201,0.00915527,-0.018158,-0.0213623
953,0.025177,0.0450134,0.0344849,-0.0508118,0.0115967,0.0178528,-0.00656128,-0.00823975,0.00839233
953,0.0332642,0.0205994,0.0238037,-0.0254822,0.0167847,-0.0151062,-0.00991821,0.0279236,0.00976562
953,-0.0205994,0.0366211,0.0140381,-0.059967,-0.00915527,0.0119019,0.03479,-0.000915527,0.0172424
953,0.0395203,0.0291443,-0.068512,-0.065918,0.0132751,0.0337219,0.00686646,0.0184631,0.0273132
953,0.0300598,0.0419617,-0.0318909,-0.0593567,0.00137329,-0.00427246,-0.00335693,0.0488281,0.0274658
953,0.0370789,0.0239563,-0.0675964,-0.0253296,0.00167847,0.0219727,0.0228882,0.0228882,0.0117493
953,0.0344849,0.0366211,-0.119781,0.0942993,0.0367737,0.0186157,-0.0213623,0.0172424,0.0285339
953,0.0189209,0.00823975,-0.0588989,0.177765,0.0325012,0.00778198,-0.0236511,0.012207,0.0500488
953,0.0253296,0.017395,0.000762939,0.109558,0.00930786,0.03479,0.019989,-0.0126648,0.0137329
953,0.0457764,0.0592041,0.0379944,0.0440979,0.0234985,0.00198364,-0.0254822,0.0131226,0.0241089
954,0.0132751,0.0254822,0.0691223,0.0296021,0.0271606,0.00244141,0.000610352,0.0112915,-0.012207
954,0.0265503,0.0566101,0.10437,0.0268555,0.0294495,0.0254822,-0.0325012,-0.0154114,0.000305176
954,0.0532532,0.0791931,0.0741577,0.0592041,0.0265503,0.0273132,-0.00946045,0.0253296,0.0436401
954,0.025177,0.0556946,0.0325012,0.0498962,-0.012207,-0.00244141,0.0141907,0.032196,-0.000457764
954,0.0318909,0.0514221,0.0149536,0.0205994,0.00305176,0.00396729,-0.01297,-0.0141907,0.00335693
954,0.03479,-0.00671387,-0.00106812,0.00671387,0.039978,0.00915527,-0.0175476,0.0263977,0.0358582
954,-0.00320435,0.00900269,-0.0157166,-0.0418091,-0.0178528,-0.0184631,0.00411987,-0.00274658,0.00228882
954,0.0471497,0.0488281,0.0108337,-0.0267029,-0.0125122,0.0221252,0.012207,-0.0236511,0.0154114
954,0.0209045,-0.000457764,0.0224304,0.0247192,0.000610352,-0.0135803,-0.0279236,0.00549316,0.0117493
954,0.00915527,0.00167847,0.0442505,0.0166321,-0.0117493,-0.00473022,0.0125122,0.000305176,0.0102234
955,0.0341797,0.0300598,0.0170898,-0.0354004,-0.000305176,0.03479,0.038147,-0.0202942,0.0102234
955,-0.00823975,0.0143433,-0.00595093,0.00534058,0.0230408,0.00320435,-0.0108337,0.0280762,0.0289917
955,-0.0541687,0.0302124,0.0454712,0.00930786,-0.00228882,-0.00762939,0.0300598,0.00534058,0.0138855
955,-0.0714111,0.00518799,-0.00854492,-0.0204468,0.0131226,0.0170898,0.00732422,-0.0088501,0.0299072
955,-0.0180054,-0.0109863,-0.030365,0.020752,0.00411987,-0.0186157,0.00366211,0.0138855,0.0189209
955,-0.0213623,0.0466919,-0.0038147,-0.00183105,-0.00900269,-0.0160217,0.0164795,-0.0299072,-0.00274658
955,0.000762939,0.211792,-0.00137329,0.00579834,0.0260925,0.0228882,-0.0262451,-0.0178528,0.022583
955,0.00183105,0.215454,0.0337219,0.00595093,-0.0219727,-0.0215149,0.0178528,0.0141907,0.00610352
955,0.00457764,0.172424,0.0274658,0.0234985,0.0106812,0.0297546,0.0152588,-0.0170898,-0.01297
955,0.0360107,0.0709534,-0.0108337,0.0624084,0.0296021,0.00198364,-0.00442505,0.00686646,0.00991821
956,0.0189209,-0.00534058,0.0454712,0.0447083,-0.00320435,-0.0106812,-0.00350952,0.0184631,0.042572
956,0.0236511,0.0135803,0.0357056,0.0328064,-0.00167847,0.0349426,0.0320435,-0.0267029,-0.000152588
956,0.00228882,0.0488281,-0.00961304,0.0192261,0.039978,0.014801,-0.00656128,0.0205994,0.0361633
956,-0.0311279,0.0164795,-0.00579834,-0.0131226,0.000305176,-0.0134277,0.0117493,0.03479,0.043335
956,-0.0186157,-0.00350952,0.030365,-0.0175476,-0.0114441,0.0244141,0.00289917,0.00564575,-0.012207
956,0.00991821,-0.0842285,-0.0164795,0.0143433,0.0378418,0.00198364,-0.0161743,0.022583,0.0270081
956,-0.00732422,-0.0404358,0.010376,0.0215149,-0.00350952,-0.00778198,-0.0126648,0.00228882,0.00656128
956,0.0317383,0.0779724,0.015564,-0.0227356,-0.0126648,0.0163269,0.0167847,0.000915527,-0.0128174
956,0.0257874,0.134888,-0.00366211,0.0123596,0.00488281,0.0242615,-0.00366211,0.0135803,0.0100708
956,-0.00213623,0.0602722,0.00793457,0.0267029,0.000610352,0.00198364,0.000152588,-0.0108337,0.0234985
957,0.0137329,0.0785828,0.0209045,-0.0109863,0.0175476,0.00854492,0.0340271,-0.0100708,-0.00701904
957,0.0309753,0.101471,-0.00778198,0.0340271,0.0267029,-0.0119019,-0.00549316,0.0346375,0.0132751
957,0.0245667,0.0172424,0.0190735,0.0254822,0.0138855,-0.00518799,-0.00793457,0.000305176,0.00183105
957,0.0297546,-0.0698853,-0.0138855,0.00442505,-0.00259399,0.0447083,0.0141907,-0.00396729,-0.01297
957,0.0218201,-0.201263,-0.0483704,0.0100708,0.0262451,-0.0239563,-0.0164795,-0.0106812,0.00686646
957,-0.0180054,-0.263214,-0.00137329,0.0144958,-0.00991821,-0.00320435,0.0213623,-0.00839233,-0.0108337
957,0.00823975,-0.269165,-0.01297,0.0169373,-0.0012207,0.000762939,0.0195312,-0.0218201,-0.00244141
957,0.0331116,-0.307007,-0.00411987,0.0352478,0.00579834,-0.000152588,-0.00244141,0.00488281,0.00411987
957,-0.000915527,-0.278015,0.0387573,0.000610352,-0.0125122,0.00106812,0.0506592,0.0038147,0.00228882
957,0.0390625,-0.225677,0.0317383,0.0140381,0.0257874,0.0254822,-0.00579834,0.00411987,0.0128174
958,-0.00640869,-0.152893,0.0114441,0.000762939,0.0175476,0.000610352,-0.000610352,0.0221252,0.0196838
958,-0.0326538,-0.0886536,0.00518799,0.00137329,0.00900269,0.0134277,0.0163269,-0.0192261,0.00762939
958,-0.0193787,0.00396729,-0.0279236,-0.0160217,0.015564,0.0317383,-0.0192261,-0.0120544,0.0143433
958,-0.00610352,0.1474,0.00839233,0.0154114,-0.0154114,-0.0210571,0.00686646,0.0163269,0.0257874
958,-0.0177002,0.20813,0.0308228,-0.00747681,-0.0198364,-0.000915527,0.0238037,-0.0210571,-0.0187683
958,0.0326538,0.169983,0.0268555,-0.0131226,0.0119019,0.0152588,-0.0012207,0.0231934,0.0141907
958,0.0190735,0.0744629,0.052948,0.0120544,0.0265503,-0.00350952,0.014801,0.00747681,0.00274658
958,0.0117493,0.0697327,0.092926,-0.0146484,0.0108337,0.0312805,0.0250244,0.00244141,-0.0177002
958,0.0566101,0.0167847,0.0202942,-0.000305176,0.0250244,0.0231934,-0.00183105,0.0390625,0.0231934
958,0.0164795,-0.0144958,0.0323486,0.00961304,0.0180054,0.0088501,0.0202942,0.0038147,0.0245667
959,0.0280762,-0.00411987,0.0296021,-0.00778198,-0.0160217,0.0192261,0.0317383,-0.00198364,0.00457764
959,0.0679016,-0.0241089,-0.00823975,0.00366211,0.0231934,-0.00946045,-0.0154114,0.0283813,0.0559998
959,0.0375366,-0.0328064,-0.00228882,0.0244141,-0.0140381,-0.0238037,0.000762939,0.00289917,0.0205994
959,0.0198364,-0.000457764,0.00411987,-0.0299072,-0.00473022,0.0167847,0.0198364,-0.0167847,-0.00961304
959,0.0267029,0.0228882,-0.0128174,-0.0167847,0.0430298,0.0160217,-0.0157166,0.0263977,0.0138855
959,-0.0212097,0.0259399,0.0259399,-0.0161743,0.00900269,-0.00991821,-0.00396729,0.0387573,0.0125122
959,0.00350952,0.0708008,0.0154114,-0.0512695,-0.0170898,0.0137329,0.00854492,-0.0163269,-0.00808716
959,0.038147,0.0442505,0.00396729,-0.0138855,0.0323486,0.00701904,-0.0131226,0.0161743,0.045166
959,0.00915527,0.0325012,0.0366211,0.0309753,0.00564575,-0.0230408,0.00930786,0.000457764,0.00656128
959,0.00228882,0.043335,0.0949097,0.0630188,0.00198364,0.0198364,0.0309753,-0.022583,0.0305176
960,0.0352478,-0.00930786,0.0363159,0.0405884,0.0210571,0.00701904,-0.0163269,0.0184631,0.0419617
960,-0.0166321,-0.0436401,0.0202942,0.0167847,0.0212097,0.00228882,0.012207,-0.0088501,-0.0062561
960,0.000915527,-0.0378418,0.00854492,0.00518799,0.017395,0.00717163,0.00350952,-0.00701904,0.00793457
960,0.0308228,-0.0137329,0.00518799,0.012207,-0.000457764,-0.00747681,-0.0106812,0.0212097,0.0476074
960,0.00686646,-0.000762939,0.0328064,0.0314331,-0.00457764,-0.0218201,0.0160217,0.00198364,0.0152588
960,0.0480652,0.0686646,0.014801,0.00961304,0.0204468,0.0453186,0.000762939,-0.00808716,0.00656128
960,0.00488281,0.035553,0.0187683,0.0254822,0.0297546,0.00320435,-0.00137329,0.00305176,0.0337219
960,-0.00518799,0.0408936,0.0338745,0.0286865,-0.00762939,0.0262451,0.0106812,0.0193787,0.0184631
960,0.0201416,0.0752258,-0.0125122,0.0160217,0.0196838,0.037384,-0.00518799,-0.0268555,0.0286865
960,-0.00213623,0.0596619,-0.00564575,0.0418091,-0.00549316,-0.00457764,0.0062561,0.032196,0.0428772
961,-0.0605774,0.0646973,0.000762939,0.0177002,-0.0152588,0.00900269,0.0270081,0.0167847,0.014801
961,-0.04776,0.050354,-0.0279236,0.0219727,0.0234985,0.012207,0.00854492,-0.00961304,0.0247192
961,-0.0245667,0.0299072,0.000305176,0.0596619,-0.00595093,-0.0247192,-0.0175476,0.000305176,0.00823975
961,-0.0175476,0.0637817,0.00976562,0.00305176,0.00244141,0.00411987,-0.00106812,-0.0169373,-0.00732422
961,0.0402832,0.0553894,-0.00778198,-0.0132751,0.0276184,0.0341797,0.00564575,0.0088501,-0.00152588
961,0.0308228,0.00274658,-0.00167847,0.0177002,0.0254822,0.000610352,0.00686646,0.0149536,0.0335693
961,0.0296021,-0.0134277,0.00457764,-0.0566101,0.00778198,0.00518799,0.0164795,-0.0151062,-0.0119019
961,0.0613403,0.0299072,-0.000152588,-0.0697327,0.0154114,0.0183105,0.0164795,-0.0201416,0.0239563
961,0.0260925,0.185242,0.0315857,0.00976562,0.0135803,-0.00595093,0.0140381,0.0273132,0.0115967
961,0.0151062,0.199127,0.0131226,-0.0193787,-0.00335693,0.020752,0.0239563,-0.0271606,-0.0111389
962,0.032196,0.107574,-0.0241089,-0.00900269,0.00732422,0.0195312,-0.0105286,0.022583,0.0111389
962,0.00961304,-0.000457764,0.00732422,0.0289917,0.0128174,-0.00152588,0.0141907,-0.00579834,0.0190735
962,0.0193787,-0.0395203,0.0062561,-0.0141907,-0.0158691,0.0256348,0.0209045,-0.00335693,0.00915527
962,-0.0123596,-0.0935364,-0.0262451,0.0170898,0.0360107,0.0280762,0.00732422,0.0288391,-0.0062561
962,-0.0395203,-0.0769043,0.00183105,0.0219727,-0.00167847,-0.0114441,0.0283813,-0.00350952,0.00518799
962,-0.0352478,-0.0523376,-0.00961304,0.0146484,0.000305176,0.0126648,0.0384521,-0.0337219,0.00686646
962,-0.00869751,-0.118561,-0.0195312,0.0205994,0.0250244,0.00900269,0.00656128,0.0167847,0.0386047
962,-0.0576782,-0.102844,0.0297546,0.0196838,-0.00274658,-0.0326538,-0.00137329,-0.0172424,0.00671387
962,0.00198364,-0.0964355,-0.0172424,-0.0146484,0.00167847,0.0230408,0.025177,-0.0189209,0.000610352
962,0.00915527,-0.0619507,0.000152588,0.0369263,0.0180054,0.00991821,0.015564,0.0318909,0.0108337
963,-0.0274658,0.0379944,0.0125122,0.0119019,0.00686646,0.0202942,0.0231934,0.00152588,-0.018158
963,0.0177002,0.0592041,-0.00106812,-0.000457764,0.0212097,0.00976562,-0.00961304,-0.00762939,0.00411987
963,0.00946045,0.0408936,0.000457764,0.0198364,0.0062561,0.0100708,0.0163269,0.0320435,0.0253296
963,-0.0193787,0.0549316,0.0463867,0.00854492,-0.00656128,0.00976562,0.0395203,0.0186157,0.0186157
963,0.0431824,0.0309753,0.0311279,-0.0178528,-0.0105286,0.0291443,0.00579834,0.0160217,0.0227356
963,0.022583,-0.0212097,0.0370789,0.00701904,0.00656128,-0.00335693,-0.0125122,0.037384,0.0270081
963,-0.0175476,-0.0364685,0.0280762,-0.000915527,-0.0189209,0.00793457,0.0401306,-0.0112915,0.00320435
963,0.0332642,-0.0450134,0.0279236,-0.000152588,0.00717163,0.0245667,-0.0160217,0.000305176,0.0558472
963,0.0619507,-0.0865173,0.0088501,0.00839233,0.00701904,-0.0177002,-0.0259399,0.0285339,0.0619507
963,0.0012207,-0.0386047,0.0180054,-0.0138855,-0.00823975,0.012207,0.0218201,0.00244141,-0.000305176
964,0.0727844,-0.0119019,-0.0180054,-0.0267029,0.0390625,0.000915527,-0.00366211,-0.00259399,0.0233459
964,0.030365,0.014801,0.0375366,0.0546265,0.0146484,0.018158,-0.00823975,-0.00274658,0.0523376
964,-0.0196838,0.067749,0.0416565,0.00473022,-0.000762939,0.0105286,0.00595093,-0.0231934,-0.012207
964,0.0105286,0.0579834,0.0166321,0.0050354,0.0424194,0.00183105,-0.000457764,-0.00579834,0.0186157
964,-0.0233459,0.0396729,0.0254822,0.00717163,0.0215149,-0.0209045,0.0172424,-0.0115967,0.0123596
964,-0.039978,0.0764465,0.0166321,-0.0486755,0.000305176,0.0289917,0.0245667,-0.0205994,-0.0109863
964,-0.0294495,0.0332642,-0.032959,-0.0100708,0.0271606,0.0328064,-0.00915527,-0.0105286,0.019989
964,-0.0326538,0.0421143,-0.0372314,0.0273132,0.00640869,-0.015564,-0.00564575,0.0111389,-0.0141907
964,-0.00411987,0.0311279,0.0305176,0.00762939,-0.0132751,0.0283813,0.00198364,0.0166321,-0.0375366
964,-0.000915527,-0.0370789,-0.0276184,-0.00213623,0.0233459,0.0354004,-0.00427246,0.0178528,0.0154114
965,-0.000610352,-0.0109863,0.0204468,0.0405884,0.0279236,0.00839233,0.0215149,0.00610352,0.00183105
965,0.045929,0.131073,0.0305176,-0.00854492,0.00106812,0.0341797,0.0202942,0.0119019,-0.0109863
965,0.0640869,0.108643,-0.00396729,-0.00854492,0.025177,0.025177,-0.00259399,0.0361633,0.00640869
965,0.0160217,0.0338745,-0.0511169,0.0126648,0.0219727,0.0112915,0.0119019,0.00366211,0.0204468
965,0.0418091,0.0402832,-0.101013,-0.00335693,-0.00259399,0.00228882,0.0109863,-0.0419617,-0.00762939
965,0.0419617,0.0108337,-0.0993347,0.0151062,0.00289917,0.00427246,-0.0102234,0.00686646,0.00518799
965,0.00518799,-0.00289917,-0.0344849,0.0222778,-0.00137329,-0.0146484,-0.0215149,0.0160217,0.0222778
965,-0.0140381,-0.0128174,0.0318909,0.0152588,-0.00335693,0.0263977,-0.0175476,0.0271606,0.0131226
965,-0.00900269,-0.0601196,0.0434875,0.00335693,0.00289917,-0.00305176,-0.0012207,0.0465393,0.0430298
965,-0.0184631,-0.0367737,0.0924683,0.0354004,0.00259399,-0.0175476,0.00335693,0.0413513,0.0520325
966,0.0318909,-0.0532532,0.00991821,-0.00610352,-0.0062561,0.0363159,0.00930786,0.0195312,0.0466919
966,0.0395203,-0.00671387,0.00244141,0.0189209,0.0384521,-0.00579834,0.0437927,0.0340271,0.0515747
966,0.0309753,0.0926208,0.0483704,0.0299072,-0.0152588,0.0157166,0.0869751,-0.0157166,-0.00137329
966,0.0236511,0.146027,0.0233459,-0.00244141,0.0134277,0.0346375,0.03479,-0.0189209,0.0144958
966,0.0442505,0.115356,0.0328064,0.0196838,0.0241089,-0.00823975,0.00106812,0.0292969,0.0221252
966,0.0184631,0.0730896,0.0474548,-0.0102234,-0.018158,0.00305176,0.0331116,0.0238037,-0.0314331
966,0.032959,-0.0106812,0.0160217,-0.00793457,0.00900269,0.038147,-0.00366211,-0.0166321,-0.00411987
966,-0.0114441,-0.0914001,0.0343323,0.0120544,0.0123596,0.00473022,-0.0105286,0.0340271,-0.00213623
966,-0.00305176,-0.125122,0.0302124,-0.00747681,0.00320435,0.0318909,0.0567627,0.0161743,-0.0296021
966,0.0543213,-0.124207,0.0144958,-0.0187683,0.0395203,0.0382996,-0.00259399,0.0405884,0.00137329
967,0.0157166,-0.103302,0.0222778,0.0105286,0.0386047,0.0205994,0.0190735,0.038147,-0.0192261
967,0.0260925,-0.0492859,-0.000305176,-0.00213623,0.0210571,0.0296021,0.0436401,-0.0177002,-0.0180054
967,0.0889587,-0.00442505,-0.00701904,-0.00488281,0.00579834,0.0401306,-0.0276184,0.0289917,0.0369263
967,0.0395203,-0.0170898,0.00305176,0.0317383,-0.000915527,-0.00411987,0.01297,0.00946045,0.020752
967,0.0401306,0.0160217,0.0236511,0.00701904,-0.00198364,-0.00366211,0.0100708,0.0190735,-0.0123596
967,0.0479126,0.0515747,-0.0244141,0.0289917,0.0276184,0.0210571,-0.00305176,0.00854492,0.0387573
967,0.018158,0.0709534,0.0178528,0.0248718,-0.00366211,-0.00671387,0.00259399,0.0215149,0.0366211
967,0.00946045,0.0784302,-0.0157166,0.000457764,-0.0128174,0.015564,0.039978,-0.00717163,0.0178528
967,0.0386047,0.0630188,0.0247192,0.0349426,0.000457764,-0.0157166,-0.0126648,0.0233459,0.0892639
967,-0.0164795,0.0297546,0.0354004,0.0123596,-0.0134277,-0.0273132,0.0154114,0.0253296,0.0234985
968,-0.0546265,0.014801,0.0234985,-0.0289917,-0.0119019,0.0227356,0.032959,0.0126648,0.0280762
968,-0.0299072,-0.0267029,-0.017395,0.0144958,0.0325012,0.0186157,0.00137329,0.00823975,0.0172424
968,-0.0746155,-0.0569153,-0.00442505,0.020752,-0.00183105,0.0114441,0.0202942,0.0193787,0.00640869
968,-0.0631714,0.0117493,0.000610352,-0.0106812,-0.014801,0.0204468,0.000762939,-0.00305176,-0.0114441
968,0.000457764,0.0163269,-0.00640869,-0.00762939,0.0157166,0.0228882,0.00152588,0.0062561,0.0111389
968,-0.00961304,-0.012207,0,-0.00778198,-0.00991821,-0.00671387,0.0123596,0.0131226,0.00411987
968,-0.00610352,-0.043335,0.00289917,-0.0117493,-0.000762939,0.0221252,0.0215149,-0.0189209,-0.0143433
968,0.00183105,-0.105133,0.00930786,0.0204468,0.0320435,0.0163269,0.0131226,0.019989,0.0224304
968,-0.0128174,-0.0845337,0.0674438,0.0363159,0.0125122,-0.0105286,0.00534058,0.000610352,-0.00350952
968,-0.000152588,-0.0270081,0.0680542,-0.0161743,0.00274658,0.0308228,0.0402832,-0.0411987,-0.0247192
969,0.0119019,0.0463867,0.00396729,0.0062561,0.00686646,-0.00457764,-0.0106812,0.0379944,0.00350952
969,-0.00534058,0.0866699,0.0230408,0.000915527,-0.00335693,-0.00976562,0.0230408,0.0398254,-0.00534058
969,0.0311279,0.0942993,-0.0219727,-0.00808716,0.0292969,0.0238037,-0.0161743,0.0105286,-0.00839233
969,0.0296021,0.0775146,-0.0210571,0.0241089,0.0212097,-0.00671387,-0.0218201,0.0415039,0.0231934
969,-0.00488281,0.0692749,0.00717163,0.0259399,-0.00427246,0.0050354,-0.00228882,0.0215149,0.0166321
969,0.0337219,0.0630188,-0.0157166,-0.00549316,0.0157166,0.0279236,0.00137329,0.010376,-0.00137329
969,0.0204468,0.000457764,-0.0268555,0.00656128,0.0350952,0.0245667,0.00640869,0.0372314,0.040741
969,-0.025177,-0.0222778,0.0146484,0.0100708,-0.0210571,-0.010376,0.0260925,0.0178528,0.0215149
969,0.027771,0.0822449,-0.0120544,-0.00976562,0.0267029,0.0193787,-0.0050354,-0.00610352,0.0146484
969,0.0114441,0.125122,-0.00610352,0.0265503,0.0135803,0.00778198,-0.00671387,0.010376,0.0408936
970,0.0111389,0.101624,0.0453186,0.00747681,-0.0088501,0.0192261,0.0393677,0.0178528,0.00778198
970,0.0622559,0.0212097,-0.00228882,-0.0152588,0.0271606,0.0050354,-0.00854492,-0.00137329,0.0262451
970,0.0138855,-0.0279236,0.000305176,0.0195312,0.0308228,0.0109863,0.0296021,0.0172424,0.0187683
970,0.0088501,-0.01297,-0.00411987,0.00396729,0.0241089,0.0205994,0.0205994,-0.00610352,-0.0105286
970,0.0437927,-0.0462341,-0.018158,-0.0396729,0.019989,0.0335693,0.000762939,0.0221252,0.0205994
970,0.0209045,-0.0582886,0.0160217,0.00259399,-0.00427246,-0.0111389,0.00320435,0.0106812,0.00534058
970,-0.0128174,-0.042572,0.0231934,-0.0236511,-0.0296021,0.0183105,0.0250244,-0.0123596,-0.0128174
970,-0.0231934,0.0363159,0.00900269,-0.0328064,0.00549316,0.0201416,-0.0312805,0.000152588,0.0231934
970,-0.00488281,0.180359,0.0138855,0.00915527,0.00228882,-0.00473022,0.0404358,-0.0239563,0.0141907
970,0.0135803,0.316925,0.0260925,0.0762939,-0.0180054,0.0205994,0.0346375,0.00244141,0.0123596
971,0.0262451,0.258484,-0.0280762,0.0444031,0.0221252,0.00793457,-0.00167847,0.0169373,0.0328064
971,-0.018158,0.106812,-0.022583,0.0292969,0.0157166,0.00350952,-0.00686646,0.0317383,0.00762939
971,0.0161743,0.000915527,-0.00274658,0.0245667,0.00183105,0.0105286,0.0262451,-0.00289917,0.0143433
971,0.0239563,-0.137787,-0.0135803,0.0170898,0.00762939,0.0119019,-0.00793457,0.0152588,0.0372314
971,-0.0117493,-0.210876,0.0135803,0.0315857,-0.0108337,0.00564575,0.0172424,0.0140381,0.0344849
971,-0.0209045,-0.223846,-0.00350952,-0.000305176,-0.000305176,0.0195312,0.0215149,-0.0210571,0.0256348
971,0.0247192,-0.218964,-0.00915527,0.0154114,0.0263977,0.00808716,-0.00549316,0.00106812,0.0564575
971,-0.0389099,-0.144806,0.0543213,-0.00534058,-0.00808716,-0.0201416,0.00930786,-0.0088501,0.000610352
971,-0.00488281,-0.130157,0.0210571,-0.0126648,-0.0177002,0.00259399,0.0123596,-0.000152588,0.0201416
971,0.0161743,-0.146332,0.00579834,0.0138855,-0.000305176,-0.0114441,-0.0216675,0.0114441,0.0244141
972,-0.0140381,-0.137024,0.0296021,-0.00289917,-0.0111389,0.00839233,0.0357056,-0.0210571,-0.015564
972,0.0158691,-0.11322,-0.0111389,0.00411987,-0.00106812,0.0250244,0.0105286,-0.0312805,0.0186157
972,0.0540161,-0.0749207,-0.0158691,0.0308228,-0.00244141,-0.00671387,-0.0219727,0.018158,0.00457764
972,0.0422668,0.00457764,0.0102234,0.0126648,0.010376,0.0204468,0.0273132,-0.00854492,-0.0112915
972,0.0408936,0.0138855,-0.00457764,0.0166321,0.0280762,0.0140381,-0.00762939,-0.0192261,0.0222778
972,0.0189209,0.00549316,0.00518799,0.035553,0.020752,-0.00640869,-0.00152588,0.00289917,0.032959
972,0.00198364,0.0738525,-0.0108337,-0.00320435,-0.00244141,0.0299072,0.0169373,-0.0134277,-0.0341797
972,0.0132751,0.0535583,-0.0350952,-0.0169373,0.0415039,0.0218201,-0.00793457,0.00610352,0.00183105
972,0.00793457,0.0180054,-0.0186157,0.00137329,0.00244141,-0.0210571,0.0202942,0.0384521,0.018158
972,0.0285339,-0.00396729,-0.01297,-0.0428772,0.00732422,0.0279236,0.0201416,0.014801,0.0144958
973,0.0328064,0.0340271,-0.0193787,-0.0320435,0.0163269,0.017395,0.0038147,0.042572,0.0248718
973,0.0524902,0.0241089,-0.00411987,0.035553,0.00320435,-0.0354004,0.035553,0.0320435,0.0210571
973,0.0430298,0.0811768,-0.0227356,0.00335693,0.0170898,0.0242615,0.00717163,-0.00274658,0.00534058
973,0.0454712,0.0415039,-0.0221252,0.0140381,0.0256348,0.00198364,-0.0189209,0.0184631,0.0627136
973,0.01297,0.0726318,0.0331116,0.0163269,0.00396729,0.00732422,0.00610352,0.0297546,0.0236511
973,0.0273132,0.102539,0.0363159,-0.0369263,-0.000305176,0.0236511,0.012207,0.015564,0.00335693
973,0.0265503,0.0978088,0.0488281,-0.018158,0.00946045,0.00579834,-0.000610352,0.0332642,0.0314331
973,-0.0474548,0.0471497,0.10437,0.000762939,0.00732422,-0.0224304,0.0227356,-0.025177,0.00274658
973,-0.0143433,0.0370789,0.110321,-0.00991821,-0.0120544,0.0228882,0.0245667,-0.0105286,-0.00213623
973,0.00793457,0.0372314,0.105286,0.0160217,0.0227356,0.00579834,0.0131226,0.0212097,0.0375366
974,-0.0448608,0.040741,0.119171,0.0112915,-0.000305176,-0.00289917,0.0172424,0.0257874,0.0111389
974,-0.0267029,0.0151062,0.0639343,0.0050354,0.0280762,0.0357056,0.00335693,-0.00183105,0.000305176
974,-0.0125122,0.0106812,0.0559998,0.0343323,0.00732422,-0.00473022,0.0012207,0.017395,0.0222778
974,0.000305176,-0.0218201,0.0349426,-0.00228882,-0.0193787,0.012207,0.0289917,0.0238037,0.014801
974,0.0271606,-0.0314331,-0.0320435,0.00793457,-0.015564,0.00869751,0.0100708,-0.0302124,0.00259399
974,0.0158691,-0.0436401,-0.130768,0.0437927,0.010376,0.00183105,-0.00900269,0.0186157,0.00335693
974,0.0227356,0.00915527,-0.157928,0.0241089,-0.0151062,-0.00244141,0.0244141,0.0119019,-0.0166321
974,0.0448608,0.0134277,-0.123749,0.00320435,0.0112915,0.0231934,-0.0100708,0.0062561,0.0111389
974,0.037384,0.0553894,0.0257874,-0.0440979,0.0456238,-0.0144958,-0.00457764,0.0300598,0.00671387
974,0.0297546,0.0688171,0.145111,-0.0305176,-0.0144958,0.0187683,0.0228882,-0.0106812,-0.00442505
975,0.014801,0.0730896,0.21759,0.00823975,0.0396729,0.0338745,-0.0144958,-0.00991821,-0.0241089
975,0.0137329,0.0576782,0.152893,0.0460815,0.0198364,-0.00289917,-0.0038147,0.00411987,-0.0183105
975,-0.0227356,0.0828552,0.0865173,0.0157166,-0.00457764,0.0050354,0.0161743,-0.0297546,-0.0292969
975,0.0164795,0.0813293,0.0675964,0.00198364,0.0209045,0.0123596,-0.0209045,0.0157166,0.00671387
975,-0.00564575,0.0706482,0.0682068,0.03479,0.0164795,-0.018158,-0.0215149,0.0038147,0.0216675
975,-0.00656128,0.0967407,0.0323486,-0.0305176,0.00930786,0.0149536,0.0141907,-0.0108337,-0.0132751
975,0.010376,0.0297546,-0.0210571,-0.00747681,0.0280762,-0.00991821,-0.00747681,-0.00656128,0.039978
975,0.00259399,0.0238037,0.0242615,0.00839233,-0.0106812,-0.00259399,0.00854492,0.00778198,0.032196
975,0.0216675,0.0552368,-0.0190735,0.0012207,-0.000915527,-0.0012207,0.0318909,0.0038147,0.0131226
975,0.0436401,0.0512695,-0.0219727,-0.0190735,0.0257874,0.00396729,-0.0158691,0.043335,0.0512695
976,-0.00213623,-0.0221252,-0.0157166,0.0325012,-0.00213623,-0.0149536,-0.0238037,0.00717163,0.0151062
976,0.0332642,-0.0369263,-0.0215149,-0.00900269,-0.0128174,0.0218201,0.0152588,-0.0195312,0.00656128
976,0.00686646,-0.0482178,-0.0431824,0.00411987,0.0396729,0.00762939,-0.00778198,0.0112915,0.0416565
976,-0.0350952,0.0164795,-0.00274658,0.0184631,-0.00183105,-0.000305176,0.00473022,-0.00473022,-0.0115967
976,0.0193787,0.0128174,-0.0492859,-0.000152588,0.00747681,0.0190735,0.0114441,-0.018158,-0.0088501
976,0.0334167,-0.0292969,-0.0288391,0.0102234,0.0172424,0.0177002,-0.015564,0.0195312,0.0137329
976,-0.00793457,-0.0360107,0.0012207,0.0231934,-0.0169373,-0.0289917,0.0190735,-0.0228882,0.00183105
976,0.030365,-0.00289917,-0.0215149,-0.0134277,0.00747681,0.00549316,0.0274658,0.0050354,-0.00564575
976,0.0411987,-0.0598145,0.0100708,0.0259399,0.00762939,-0.00259399,-0.0338745,0.0172424,0.0527954
976,0.0318909,-0.0688171,0.0497437,0.0111389,0.0141907,-0.000457764,0.00900269,-0.0170898,0.040741
977,0.0268555,-0.0372314,-0.00717163,0.00946045,0.0257874,-0.00595093,-0.00152588,-0.0320435,0.0270081
977,0.0315857,0.0109863,0.00411987,0.0318909,0.0280762,0.0100708,-0.0363159,-0.00946045,0.0396729
977,0.00259399,0.133972,0.0340271,0.00549316,0.00350952,0.00427246,0.0318909,-0.00350952,0.0167847
977,0.000457764,0.159302,-0.00152588,-0.0169373,0.00823975,0.0180054,0.00747681,-0.0170898,0.0163269
977,0.00488281,0.111084,0.000457764,0.0212097,0.0160217,-0.0128174,0.000610352,0.0166321,0.0331116
977,-0.0209045,0.128326,0.0189209,0.01297,0.00640869,0.0050354,0.0302124,0.00732422,-0.00396729
977,-0.0106812,-0.00366211,-0.000915527,0.0167847,0.0302124,0.00854492,-0.0166321,0.00335693,0.00839233
977,0.00900269,-0.0585938,0.00701904,0.0341797,0.0268555,0.0169373,0.00350952,-0.00167847,0.0263977
977,-0.00656128,-0.098877,0.0221252,0.0248718,-0.00152588,0.0405884,0.0308228,-0.0172424,-0.0170898
977,0.0361633,-0.152283,-0.0163269,0.010376,0.0218201,0.0144958,-0.00915527,0.00823975,0.0123596
978,-0.00350952,-0.198517,0.00198364,0.0205994,0.00762939,0.00228882,-0.0143433,0.0215149,0.0154114
978,-0.0201416,-0.16571,0.0410461,-0.0149536,-0.0195312,0.019989,0.0175476,-0.0218201,-0.00808716
978,0.00915527,-0.0965881,0.00991821,-0.0230408,0.0291443,0.0294495,0.0120544,0.00869751,-0.0120544
978,0.0172424,-0.0468445,-0.0224304,-0.0405884,0.0245667,0.00228882,-0.00930786,0.0164795,-0.0115967
978,0.00991821,0.0384521,0.0241089,-0.00595093,0.00823975,0.0305176,0.0170898,-0.0119019,-0.000457764
978,0.0453186,0.0524902,-0.00610352,0.0746155,0.0331116,0.00686646,0.0102234,0.0318909,0.0106812
978,0.017395,0.0105286,0.0239563,0.0550842,-0.00488281,-0.01297,0.0108337,0.0140381,0.00793457
978,0.0050354,0.0279236,0.00961304,-0.010376,0.00686646,0.01297,0.0192261,-0.0105286,-0.00915527
978,-0.012207,0.0291443,-0.00762939,0.0138855,0.0328064,0.017395,-0.00518799,0.0328064,0.0154114
978,-0.0379944,0.014801,0.0427246,0.0288391,-0.0135803,-0.00518799,-0.00488281,0.0219727,-0.0105286
979,-0.0131226,0.0497437,0.00671387,-0.00228882,0.0149536,0.0315857,0.0132751,-0.0212097,-0.00961304
979,0.0114441,-0.00793457,-0.0454712,0.0128174,-0.00579834,0.0126648,0.0193787,0.0238037,0.0210571
979,0.00991821,0.0286865,0.00213623,0.0274658,-0.0180054,-0.0244141,0.032959,0.0186157,0.0256348
979,0.0186157,0.0506592,-0.00534058,0.00259399,0.0109863,0.0346375,0.0135803,-0.0126648,0.0050354
979,0.0180054,0.0184631,-0.00686646,0.0119019,0.0152588,-0.00732422,-0.00701904,-0.00167847,-0.00823975
979,-0.0172424,0.0297546,0.0369263,0.0262451,-0.012207,-0.00442505,0.0111389,-0.00534058,0.00686646
979,0.0430298,0.0653076,-0.0157166,-0.00823975,0.00991821,0.0279236,0.00518799,-0.00701904,0.0247192
979,0.0221252,0.0682068,-0.00930786,0.0234985,0.0161743,0.0149536,0.0100708,0.0062561,0.0431824
979,0.0163269,0.105286,0.0439453,-0.00534058,0.00305176,0.00137329,0.0192261,0.00152588,0.00350952
979,0.0361633,0.0982666,0.00488281,-0.00259399,0.00991821,0.017395,0.0221252,0.0212097,0.0349426
980,0.00854492,0.0915527,-0.0167847,0.0195312,0.0140381,-0.00961304,-0.0112915,0.0230408,0.0439453
980,0.0135803,0.105591,0.0152588,0.0108337,-0.0222778,-0.00991821,0.0108337,0.00793457,0.027771
980,0.0108337,0.0933838,-0.00595093,0.00244141,0.0401306,0.0265503,-0.00976562,0.00686646,0.0238037
980,0.00732422,-0.0088501,-0.00915527,0.0437927,0.022583,0.00732422,0.00473022,0.0408936,0.0434875
980,0.00762939,-0.0143433,0.0209045,0.00839233,-0.00656128,0.0314331,0.0427246,0.00732422,0.0144958
980,0.0320435,-0.0434875,0.000457764,-0.0151062,0.0132751,0.0245667,0.0170898,0.0120544,0.0372314
980,0.00350952,-0.0730896,0.0108337,0.0164795,0.00946045,-0.0187683,-0.0050354,0.0288391,0.00915527
980,0.00991821,-0.0535583,0.0384521,0.00732422,-0.0222778,0.0187683,0.000457764,0.010376,-0.000610352
980,0.0456238,-0.0813293,0.00274658,-0.014801,0.0300598,0.0334167,-0.0361633,0.00106812,0.0132751
980,0.0350952,-0.057373,0.0038147,0.00335693,0.00396729,0.0180054,0.012207,0.017395,0.0332642
981,0.00793457,-0.0190735,0.00564575,-0.000305176,-0.0102234,-0.012207,0.0263977,-0.00518799,0.0146484
981,0.0605774,0.0193787,0.00106812,0.0109863,0.040741,0.0413513,0.00915527,0.0289917,0.0363159
981,0.0289917,-0.00518799,0.0260925,0.0244141,-0.000152588,0.0131226,0.0134277,0.00289917,0.0436401
981,0.0202942,0.0302124,-0.00747681,0.00167847,0.00366211,0.015564,0.0267029,-0.00747681,-0.000305176
981,0.0230408,0.0340271,-0.0463867,-0.0109863,0.0244141,0.0302124,-0.00762939,0.015564,0.0183105
981,-0.0152588,0.0419617,-0.0230408,0.0337219,0.00549316,-0.0193787,-0.00595093,0.00762939,0.0231934
981,0.0286865,0.085144,-0.0363159,-0.00579834,-0.00488281,0.0166321,0.0360107,-0.0230408,-0.0138855
981,0.0358582,0.168457,-0.0454712,0.00976562,0.0294495,0.000457764,-0.0305176,-0.00732422,0.00778198
981,-0.00289917,0.21347,0.0088501,0.00930786,-0.00152588,-0.000457764,0.017395,-0.00228882,-0.0332642
981,0.019989,0.198669,0.0506592,-0.0196838,-0.0108337,0.0109863,0.0062561,-0.03479,-0.0189209
982,0.0389099,0.0933838,0.0732422,0.00900269,0.00747681,0.0134277,0.0144958,0.0520325,0.0364685
982,-0.00640869,0.0167847,0.13504,-0.00900269,-0.00579834,0.00289917,0.0172424,0.0189209,-0.0115967
982,0.0138855,-0.00808716,0.10025,-0.0320435,0.0263977,0.0108337,-0.000305176,-0.015564,0.00732422
982,0.00900269,-0.0921631,0.0556946,-0.00488281,0.0260925,0.0308228,-0.0198364,0.0184631,0.00396729
982,-0.0344849,-0.109863,0.0230408,0.0508118,-0.0137329,-0.00778198,0.0160217,0.00167847,-0.000762939
982,-0.00595093,-0.0933838,-0.0138855,0.0216675,0.0265503,0.0265503,0.0128174,0.00808716,-0.0360107
982,0.00915527,-0.0946045,-0.015564,0.0247192,-0.00701904,-0.00839233,0.010376,0.0543213,0.00778198
982,-0.0125122,-0.102844,0.0195312,0.020752,0.00915527,-0.0163269,0.0112915,0.0263977,-0.0262451
982,0.0308228,-0.125732,-0.0254822,-0.00244141,0.0238037,0.0382996,0.017395,0.00518799,-0.0137329
982,0.00686646,-0.176086,-0.0164795,0.0210571,0.0111389,0.0192261,-0.0126648,0.0367737,0.0106812
983,-0.0236511,-0.0813293,0.0541687,-0.0143433,-0.0154114,0.0143433,0.000610352,0.0143433,-0.0219727
983,0.0444031,-0.0358582,0.00976562,-0.00213623,0.0247192,0.0167847,-0.00579834,0.0192261,0.00900269
983,0.0192261,-0.0285339,-0.00396729,0.0350952,0.0146484,0.00701904,0.00534058,0.00610352,0.000305176
983,0.00198364,-0.000762939,0.0466919,0.019989,-0.0160217,0.00946045,0.0201416,-0.00427246,-0.00335693
983,0.0259399,-0.000610352,0.00961304,-0.0166321,0.0259399,-0.00946045,-0.0201416,-0.019989,-0.00183105
983,0.0102234,0.0204468,0.0238037,0.017395,0.0178528,0.000762939,0.0189209,0.0131226,-0.0109863
983,0.0315857,0.0526428,0.0328064,-0.00259399,-0.0213623,0.0154114,-0.000152588,-0.00534058,-0.0274658
983,0.0212097,0.0393677,-0.00106812,0.000915527,0.0312805,0.0138855,-0.0152588,-0.000152588,0.0495911
983,0.0296021,0.00518799,-0.000305176,0.0132751,0.00595093,-0.00778198,0.0357056,0.0238037,0.0205994
983,0.0392151,0.0448608,0.0314331,-0.0126648,0.00442505,0.0328064,0.030365,0.0111389,0.00289917
984,0.0485229,0.0491333,-0.0012207,0.0126648,0.0273132,0.00610352,0.00640869,0.0415039,0.0170898
984,0.0219727,0.0790405,0.0300598,0.0457764,0.0109863,0.0149536,0.0151062,0.0141907,0.00946045
984,0.0213623,0.0856018,-0.000305176,-0.0170898,-0.0100708,0.0234985,0.0132751,-0.00305176,0.0309753
984,-0.00152588,0.0543213,-0.0366211,-0.00564575,0.014801,0.0137329,0.00961304,0.0190735,0.038147
984,-0.0444031,0.0198364,-0.071106,-0.00534058,-0.0224304,-0.0125122,0.0212097,0.000610352,0.0341797
984,0.00778198,0.0196838,-0.124512,-0.0236511,-0.00411987,0.0288391,0.00274658,0.0038147,0.00793457
984,0.018158,-0.014801,-0.106659,-0.00732422,0.0050354,0.0196838,-0.010376,0.0209045,0.0350952
984,-0.0201416,-0.0299072,-0.00656128,0.022583,-0.0218201,-0.00747681,0.000915527,-0.00350952,0.0216675
984,-0.00473022,0.00350952,0.0328064,0.0205994,-0.000152588,0.0231934,0.0187683,0.00564575,0.0178528
984,-0.00946045,0.00473022,0.0965881,0.0273132,0.0335693,0.00701904,0.0154114,0.0221252,0.0389099
985,-0.0187683,-0.0593567,0.130157,0.0218201,0.0149536,0.00701904,0.0195312,0.0242615,0.00488281
985,0.0245667,-0.0395203,0.0378418,-0.00518799,-0.00900269,0.0222778,0.00671387,-0.00961304,0.0247192
985,0.0364685,-0.0363159,-0.000152588,0.0038147,0.00640869,-0.00823975,-0.00244141,0.00900269,0.0247192
985,0.0346375,0.00442505,0.0315857,0.00457764,-0.0315857,-0.00915527,-0.0190735,-0.0102234,0.0187683
985,0.0506592,0.0134277,-0.0169373,-0.0202942,0.00656128,0.0291443,0.0190735,0.00183105,0.0282288
985,0.0569153,-0.00305176,-0.0556946,0.0299072,0.0340271,0.0161743,0.014801,0.0270081,0.0109863
985,0.0111389,0.0332642,-0.0268555,-0.0012207,-0.0219727,0.00534058,0.038147,0.000915527,-0.0050354
985,0.0476074,0.0228882,-0.0457764,0.00762939,0.0109863,0.0309753,0.000915527,0.00473022,0.0474548
985,0.00717163,0.00946045,-0.0164795,0.00930786,0.0247192,0.00946045,0.00564575,0.0325012,0.0314331
985,-0.0108337,0.035553,0.0253296,0.0112915,-0.00595093,-0.00823975,-0.00717163,0.00534058,0.0114441
986,0.0263977,0.0515747,-0.00411987,-0.0202942,0.00549316,0.0151062,0.0160217,-0.00442505,0.0244141
986,0.000457764,0.0447083,0.0386047,0.0175476,0.0140381,-0.00793457,-0.00610352,0.032196,0.035553
986,-0.0274658,0.115509,0.083313,0.0038147,-0.0172424,0.0105286,0.0253296,-0.0119019,-0.01297
986,0.00549316,0.14267,0.0564575,0.000152588,0.0151062,0.0161743,-0.00442505,-0.00610352,0.00808716
986,-0.00854492,0.12085,0.0679016,0.01297,0.030365,-0.00396729,-0.00640869,0.0184631,0.0297546
986,-0.00411987,0.104523,0.0578308,0.0038147,-0.0170898,-0.0012207,0.0050354,-0.0234985,-0.00457764
986,0.0521851,0.0540161,0.0135803,0.0152588,0.0376892,0.0152588,-0.000762939,-0.000152588,0.0178528
986,0.0357056,-0.00778198,0.0640869,0.0305176,0.0120544,0.0120544,0.0158691,0.0326538,0.0201416
986,0.019989,-0.0856018,0.0178528,-0.00198364,0.014801,0.0195312,0.0253296,-0.0062561,-0.0175476
986,0.0614929,-0.0830078,-0.0190735,0.014801,0.0105286,0.00747681,-0.0216675,0.00671387,0.0372314
987,0.0254822,-0.0518799,-0.00717163,0.00808716,0.00549316,-0.00106812,-0.00411987,0.0170898,0.0134277
987,0.0216675,0.00198364,-0.00595093,-0.0311279,-0.00213623,0.0274658,0.0143433,-0.0164795,-0.035553
987,0.0160217,-0.00839233,-0.0228882,0.0344849,0.0189209,0.0134277,-0.0132751,0.0256348,0.00671387
987,-0.0131226,0.01297,0.037384,0.0190735,0.00946045,0.00228882,0.0088501,0.0242615,-0.00762939
987,0.00152588,0.0392151,-0.00701904,-0.0263977,0.0132751,0.0100708,0.0218201,-0.0105286,-0.0183105
987,-0.0384521,0.14679,-0.0405884,0.0132751,0.0247192,0.00473022,-0.000305176,-0.00411987,0.00762939
987,-0.0613403,0.225525,0.000457764,0.0236511,-0.00198364,0.00396729,0.0183105,0.0192261,-0.00488281
987,-0.0134277,0.197754,-0.0167847,-0.00717163,0.00747681,0.0358582,0.0291443,0.012207,0.0012207
987,-0.000305176,0.0241089,-0.014801,0.030365,-0.00152588,0.000610352,0.0108337,0.0274658,0.017395
987,0.0115967,-0.0852966,-0.0050354,0.00778198,-0.0152588,0.0134277,0.0219727,-0.00823975,-0.0180054
988,0.0227356,-0.164642,-0.0271606,-0.0267029,0.00946045,0.0196838,-0.0289917,0.012207,0.0105286
988,0.00671387,-0.223083,-0.0418091,0.0186157,0.010376,-0.0106812,0.00579834,0.0317383,0.0204468
988,-0.00778198,-0.0621033,-0.00457764,-0.00427246,-0.0175476,0.0227356,0.0210571,-0.0401306,0.00167847
988,-0.0193787,0.0408936,-0.00671387,0.0105286,0.0198364,0.0157166,0.00198364,0.00549316,0.0143433
988,-0.0134277,0.0361633,0.11795,0.0366211,-0.00320435,-0.00778198,0.00595093,0.0268555,0.0282288
988,0.0170898,0.0172424,0.126343,0.0138855,-0.00152588,0.0262451,0.0265503,-0.0448608,0.0172424
988,0.0396729,-0.0474548,0.0691223,0.00869751,0.0245667,0.00488281,-0.00411987,0.00442505,0.0439453
988,0.0138855,-0.00518799,0.0776672,0.0315857,0.00671387,-0.00274658,-0.0204468,0.0109863,0.0445557
988,0.017395,0.0511169,0.0454712,-0.0143433,-0.0262451,0.0138855,0.0183105,-0.000610352,0.0202942
988,0.0271606,0.0112915,0.0108337,-0.00106812,-0.0062561,0.000152588,-0.00793457,0.0231934,0.0474548
989,0.0163269,0.0320435,0.0521851,0.0119019,-0.00534058,-0.0183105,0.00915527,0.0227356,0.0419617
989,0.0318909,0.00411987,-0.000457764,-0.0241089,-0.0195312,0.0138855,0.00991821,0.00228882,0.0445557
989,0.0413513,-0.0627136,-0.0349426,-0.00106812,-0.000762939,-0.00610352,-0.00656128,0.03479,0.0570679
989,0.0262451,-0.0805664,-0.0297546,0.0241089,0.0209045,0.00244141,0.0289917,-0.00213623,0.0308228
989,0.0274658,-0.0849915,-0.0724792,-0.00656128,0.00564575,0.0305176,0.0204468,0.0050354,0.0256348
989,0.010376,-0.122833,-0.065155,0.0434875,0.0300598,0.0180054,0.00259399,0.00991821,0.0302124
989,-0.00991821,-0.0805664,-0.0471497,0.00595093,-0.00915527,0.00656128,-0.017395,-0.0384521,-0.0236511
989,0.0262451,-0.0447083,-0.0585938,-0.00595093,0.00808716,0.0283813,-0.0038147,-0.0445557,-0.0144958
989,0.0350952,-0.00350952,-0.0360107,0.0170898,0.0160217,-0.00579834,-0.0236511,0.000915527,-0.0296021
989,-0.0183105,0.0376892,0.0357056,-0.00213623,-0.0151062,0.00991821,0.0230408,-0.0187683,-0.0523376
990,0.00976562,0.0328064,0.022583,-0.0231934,0.00976562,0.0138855,-0.012207,-0.00564575,-0.0424194
990,-0.0161743,0.0616455,0.0138855,0.0296021,-0.000610352,-0.00900269,0.00167847,0.0413513,-0.0192261
990,-0.0138855,0.164032,0.0218201,0.000305176,0.022583,0.00701904,0.0131226,0.00930786,-0.0442505
990,0.00900269,0.134735,-0.0134277,0.0166321,0.0444031,0.0453186,0.00213623,0.017395,0.018158
990,0.0134277,0.0875854,0.0180054,0.0250244,0.0117493,0.0221252,0.0163269,0.0463867,-0.00213623
990,0.0193787,0.0418091,0.0312805,-0.0183105,0.00198364,0.0285339,-0.00152588,0.0187683,-0.00747681
990,0.0337219,0.0038147,0.0286865,0.0166321,0.01297,0.0131226,-0.0152588,0.043335,-0.00762939
990,-0.0163269,-0.0872803,0.0050354,0.0253296,-0.0102234,-0.0115967,0.00244141,0.0636292,-0.00335693
990,0.0239563,-0.0700378,-0.0062561,-0.00976562,-0.0109863,0.017395,0.00930786,0.0141907,-0.018158
990,0.0474548,-0.128937,-0.0349426,-0.00747681,0.0115967,0.00823975,-0.0195312,0.0282288,0.0193787
991,0.0341797,-0.143127,0.0294495,0.0285339,-0.00274658,-0.0218201,0.0128174,0.0297546,0.0112915
991,0.00228882,-0.117493,0.0296021,-0.0062561,0.00747681,0.0218201,-0.000457764,0.00137329,-0.0114441
991,0.0302124,-0.102997,0.0125122,0.00793457,0.0183105,0.0343323,-0.0105286,0.0512695,0.0234985
991,-0.0112915,0.0202942,0.0700378,0.0346375,-0.00213623,-0.00518799,0.000915527,0.0160217,0.000305176
991,-0.00274658,0.102844,0.0666809,-0.00534058,0.0187683,0.0474548,0.00579834,-0.00488281,0.0270081
991,0.0135803,0.10849,0.0157166,0.0184631,0.0299072,-0.00930786,-0.0248718,0.00778198,0.0140381
991,-0.000305176,0.133514,0.0427246,0.00915527,-0.00915527,-0.000152588,0.0282288,0.0125122,0.0187683
991,0.00930786,0.152283,0.0196838,-0.0143433,0.0105286,0.0152588,0.0184631,-0.00213623,0.00534058
991,0.00930786,0.0762939,0.0209045,0.0344849,0.0170898,-0.00152588,-0.0157166,0.018158,0.0204468
991,0.0357056,0.0674438,0.0415039,-0.00457764,0.00305176,0.0167847,0.000152588,-0.0012207,-0.00610352
992,0.0550842,0.027771,0.0126648,0.00808716,0.015564,0.019989,-0.0111389,0.0180054,0.00320435
992,0.037384,0.0215149,-0.0419617,0.022583,0.00137329,-0.0140381,-0.00946045,0.0132751,0.0184631
992,0.0389099,0.018158,-0.0863647,0.00793457,-0.00656128,0.0144958,0.0338745,-0.0117493,0.0123596
992,0.045929,-0.0476074,-0.062561,0.0256348,0.0354004,0.0285339,0.00411987,0.00335693,0.0360107
992,-0.00946045,-0.0672913,0.0254822,0.0398254,0.0135803,0.000762939,0.0187683,0.0161743,0.00274658
992,-0.00534058,0.00137329,0.0706482,0.000915527,0.00152588,0.0245667,0.0357056,-0.0360107,-0.0135803
992,0.0382996,-0.0898743,0.12146,0.00640869,0.0134277,0.0273132,-0.0108337,0.0382996,0.0273132
992,-0.0108337,-0.0973511,0.0700378,0.00808716,-0.0123596,-0.020752,0.0230408,0.0215149,0.00747681
992,0.0212097,-0.0256348,0.00778198,-0.0180054,-0.00579834,0.0158691,0.0209045,-0.0260925,-0.00854492
992,0.0357056,0.104218,-0.00778198,0.000610352,0.0271606,0.0196838,-0.0177002,0.0146484,0.0157166
993,-0.00854492,0.217438,0.00946045,0.015564,-0.00778198,-0.00549316,0.0271606,0.0250244,-0.00167847
993,0.0186157,0.239716,0.00549316,-0.0111389,-0.0154114,0.012207,0.0292969,-0.0315857,0.0170898
993,0.0141907,0.112915,-0.0401306,-0.00534058,0.00518799,0.00991821,-0.00167847,-0.015564,0.0219727
993,0.00274658,0.00473022,-0.0282288,0.0186157,0.00900269,0.0102234,0.000305176,0.00167847,0.00534058
993,-0.00732422,-0.040741,-0.0588989,0.0120544,0.0186157,0.0134277,-0.00305176,-0.0106812,0.00686646
993,-0.00488281,-0.0579834,-0.0428772,0.0137329,0.0248718,0.00137329,-0.0126648,0.0558472,0.012207
993,-0.0167847,-0.0552368,0.0265503,0.0387573,0.0283813,0.0189209,0.00686646,0.045166,-0.0106812
993,0.0238037,-0.0906372,0.0694275,0.000305176,0.0227356,0.0282288,0.0268555,0.012207,-0.0117493
993,0.0302124,-0.1828,0.0444031,0.0154114,0.00869751,0.00915527,-0.000457764,0.0271606,0.0344849
993,-0.0175476,-0.151978,0.0117493,0.00396729,-0.0109863,0.00350952,0.0326538,0.00976562,-0.00732422
994,0.0209045,-0.0527954,-0.00839233,0.00259399,0.00900269,0.00991821,0.0375366,-0.00534058,-0.000762939
994,0.00701904,-0.0558472,0.0309753,0.0349426,0.0305176,0.017395,0.0144958,0.0286865,0.0364685
994,-0.00213623,-0.0344849,0.0311279,0.0100708,-0.00183105,-0.0102234,0.0167847,0.0230408,0.000152588
994,0.0369263,0.0115967,-0.0152588,-0.0215149,0.0105286,0.0236511,0.0119019,0.00762939,0.0259399
994,0.0270081,-0.00442505,-0.0306702,0.00427246,0.00518799,0.00442505,-0.0111389,0.0184631,0.0419617
994,-0.00183105,0.0198364,-0.0106812,0,-0.0268555,0.00549316,0.000457764,-0.00137329,0.0135803
994,0.0328064,0.0552368,-0.030365,-0.0302124,0.0141907,0.00869751,-0.000457764,0.0050354,-0.00396729
994,0.00854492,0.0117493,-0.0112915,0.0213623,0.014801,0.00488281,-0.0128174,0.0151062,0.0311279
994,-0.000152588,0.0350952,0.0469971,0.0128174,-0.0100708,0.00350952,0.0297546,-0.0161743,-0.0212097
994,0.0140381,0.211639,0.0114441,0.0210571,0.0328064,0.0256348,-0.000305176,0.010376,0.0335693
995,0.0286865,0.300598,0.01297,0.0325012,-0.0152588,-0.0141907,0.0163269,-0.000457764,0.0305176
995,0.0624084,0.258484,0.000915527,0.00518799,0.0125122,0.0216675,-0.00183105,-0.0271606,0.0331116
995,0.0527954,0.175171,0.0273132,0.0038147,0.0364685,0.0244141,0.00244141,0.0135803,0.0350952
995,0.0360107,0.0558472,0.0534058,0.0144958,-0.00183105,-0.00473022,0.0166321,0.0279236,0.0138855
995,0.00457764,-0.0331116,0.0358582,0.00320435,-0.00198364,0.0444031,0.0312805,-0.0292969,-0.0178528
995,-0.00656128,-0.103912,-0.00549316,0.00839233,0.00946045,0.00213623,-0.0102234,0.0205994,0.0112915
995,-0.0236511,-0.0927734,-0.000305176,0.000915527,0.0161743,0.0318909,0.014801,-0.0151062,-0.0157166
995,-0.0291443,-0.0839233,-0.0302124,-0.0312805,-0.0178528,0.0267029,0.0305176,-0.00976562,-0.0189209
995,-0.0389099,-0.111847,-0.00808716,0.00701904,0.027771,0.0102234,-0.00350952,0.00976562,-0.00305176
995,-0.0549316,-0.0935364,0.0247192,0.0219727,-0.00213623,-0.0152588,0.0151062,0.00335693,0.0227356
996,-0.00274658,-0.0744629,0.0637817,-0.0108337,-0.00274658,0.00991821,0.0106812,-0.0415039,0.00946045
996,-0.000915527,-0.123749,0.0637817,0.00946045,0.0180054,-0.00350952,0.00793457,0.0331116,0.0389099
996,-0.00793457,-0.0497437,0.025177,-0.0109863,-0.0209045,-0.00549316,0.0262451,0.0108337,0.00930786
996,0.0312805,0.00213623,-0.025177,-0.0117493,0.0184631,0.0361633,-0.00228882,0.0170898,0.032196
996,-0.00900269,0.00671387,0.000457764,0.0201416,0.00518799,-0.00366211,-0.0100708,0.0553894,0.0550842
996,-0.00152588,0.0334167,-0.0419617,-0.0151062,0.00823975,0.00991821,0.0291443,0.0308228,0.010376
996,0.0668335,0.0546265,-0.0280762,0.0285339,0.00305176,-0.00427246,-0.00900269,0.0302124,0.0238037
996,0.00534058,0.00686646,0.00915527,0.0222778,0.00457764,-0.0088501,0.00549316,0.0354004,0.0227356
996,-0.00564575,0.0151062,0.00488281,-0.000610352,-0.0205994,0.00411987,0.0120544,-0.00778198,-0.0341797
996,0.0172424,0.0202942,-0.00915527,-0.00534058,0.0346375,0.0114441,0.0141907,0.00198364,0.0376892
997,0.0105286,0.0257874,0.0309753,0.0291443,-0.0187683,-0.0138855,-0.0152588,0.0202942,0.0239563
997,0.0370789,0.0630188,0.0457764,0.00305176,0.00442505,0.0138855,0.0230408,-0.00274658,-0.00442505
997,0.00610352,0.0393677,0.0242615,0.0218201,0.0440979,0.0265503,-0.0297546,0.0137329,0.0221252
997,-0.00305176,0.0218201,0.0465393,0.0285339,-0.00564575,-0.0224304,0.0141907,0.00991821,0.0137329
997,-0.00991821,0.0367737,0.0274658,-0.00183105,0.00335693,0.0437927,-0.0117493,0.00656128,0.00549316
997,0.0202942,0.017395,-0.00442505,0.0192261,0.0358582,-0.00549316,0.0108337,0.00701904,0.0198364
997,0.00671387,-0.0195312,0.0245667,0.00656128,-0.0305176,0.00778198,0.0312805,-0.0201416,0.00930786
997,0.0454712,-0.0483704,-0.0318909,-0.0141907,0.00595093,0.0236511,0.0141907,-0.0273132,0.0128174
997,0.0256348,-0.0636292,0.0114441,0.0177002,0.0267029,0.01297,-0.00869751,-0.0212097,0.00762939
997,0.0178528,-0.0157166,0.0012207,0.00549316,-0.00274658,0.0228882,0.032196,-0.0160217,-0.0180054
998,0.022583,0.00289917,0.00640869,-0.00656128,0.0157166,0.017395,-0.00534058,0.00473022,0.0187683
998,0.0276184,0.0666809,0.0169373,0.0247192,0.0135803,-0.0115967,0.00595093,0.0430298,0.0239563
998,0.0267029,0.119019,-0.115967,-0.0062561,0.00534058,0.0134277,0.0210571,-0.000152588,0.0170898
998,0.00793457,0.0901794,-0.119476,-0.010376,0.00854492,0.0189209,-0.0135803,0.0340271,0.0163269
998,0.00366211,0.0473022,-0.0546265,-0.000152588,0.00595093,-0.0393677,0.0238037,0.0161743,-0.000457764
998,0.0325012,0.0239563,0.0360107,-0.0102234,-0.00457764,0.0146484,0.0193787,0.00335693,-0.0309753
998,0.00686646,-0.0567627,0.0508118,0.00991821,0.00244141,-0.0143433,-0.0267029,0.0241089,0.00244141
998,-0.0552368,-0.0819397,0.160217,0.00839233,-0.010376,0.0146484,0.0106812,0.0354004,0.00396729
998,-0.0495911,-0.0559998,0.0778198,-0.00442505,-0.0222778,0.0163269,0.0138855,0.0126648,0.00564575
998,-0.00488281,-0.0939941,-0.010376,0.0222778,0.0172424,0.0166321,-0.0134277,0.0233459,0.0498962
999,-0.0367737,-0.0827026,0.0427246,0.0108337,-0.0141907,0.0135803,0.0177002,-0.00823975,-0.0221252
999,-0.0115967,-0.0776672,0.0630188,0.0140381,0.0239563,0.0314331,-0.0302124,-0.0213623,0.00564575
999,0.0268555,-0.0544739,0.0601196,0.0315857,0.0143433,0.00900269,-0.00106812,0.00778198,0.0244141
999,0.019989,-0.0111389,0.0454712,0.0213623,-0.00640869,-0.0210571,0.00946045,-0.01297,-0.00762939
999,0.0390625,-0.00198364,0.0119019,-0.0137329,0.0233459,0.0285339,-0.00167847,-0.0183105,-0.00396729
999,0.032959,0.00549316,0.0398254,0.0454712,0.0361633,-0.00823975,-0.0195312,0.0115967,0.0149536
999,0.0144958,0.0297546,0.0700378,-0.00671387,-0.0256348,0.00213623,0.0152588,-0.0267029,-0.00732422
999,0.0491333,0.0534058,0.0201416,-0.0175476,0.0430298,0.0274658,-0.00823975,0.00778198,0.0166321
999,0.0453186,0.0141907,-0.000457764,-0.0115967,0.00808716,0.0125122,-0.000152588,0.0512695,0.03479
999,0.00656128,0.0183105,0.0160217,0.00579834,-0.00411987,0.00411987,0.0267029,-0.00274658,0.0271606
1000,0.06073,0.00717163,-0.0260925,0.00350952,0.0190735,0.0195312,0.00137329,0.00564575,0.0517273
1000,0.0315857,0.0469971,-0.0105286,0.0366211,-0.00183105,-0.0209045,-0.0151062,-0.0177002,0.0250244
1000,-0.0195312,0.0823975,0.0117493,-0.00793457,-0.00823975,0.0178528,0.0195312,-0.0193787,0.00564575
1000,0.0125122,0.0627136,0.0134277,0.00335693,0.0271606,0.0189209,-0.0102234,0.00976562,0.0360107
1000,-0.00350952,0.00839233,0.00961304,0.0300598,0.00915527,-0.0141907,-0.00549316,0.04776,0.0210571
1000,-0.00976562,0.012207,-0.00946045,-0.00457764,-0.0247192,0.0117493,0.0178528,0.0189209,0.0114441
1000,0.0178528,-0.0146484,-0.0143433,-0.00915527,-0.000762939,0.0137329,0.00213623,0.0382996,0.00518799
1000,-0.0195312,-0.0238037,0.0038147,0.0221252,-0.00289917,-0.0137329,0.0169373,0.00411987,-0.00762939
1000,0.000305176,0.0559998,0.00274658,-0.0262451,0.00427246,0.0325012,0.0479126,-0.0326538,-0.0306702
1000,0.0271606,0.0231934,-0.0245667,0.00396729,0.037384,0.0308228,0.00213623,0.0210571,-0.00778198
1001,0.00274658,0.0262451,0.01297,0.0164795,0.00900269,0.01297,0.0253296,0.0160217,-0.00366211
1001,-0.00411987,0.0372314,-0.00900269,-0.0112915,0.00411987,0.0396729,0.0216675,0.00259399,-0.00259399
1001,-0.0257874,0.0234985,-0.0384521,0.0245667,0.0222778,0.00350952,0.00671387,0.0242615,-0.00366211
1001,-0.0134277,-0.00411987,-0.00167847,0.0224304,0.0247192,0.0141907,0.0131226,-0.00946045,-0.0257874
1001,0.00442505,0.000457764,-0.0210571,0.00640869,0.0299072,0.0360107,-0.00167847,0.0105286,-0.0294495
1001,0.0245667,-0.00411987,-0.00808716,0.0344849,0.0178528,0.00198364,-0.014801,0.0390625,0.0100708
1001,0.00518799,0.052948,0.0160217,0.0119019,-0.0228882,0.0114441,0.012207,0.000762939,-0.00823975
1001,0.032196,0.162506,-0.0292969,-0.00305176,0.0305176,0.0352478,-0.00473022,0.0234985,0.00305176
1001,0.0418091,0.17807,0.0268555,0.0273132,0.0392151,0.0132751,0.000305176,0.0154114,0.0382996
1001,0.0257874,0.116119,0.068512,-0.00167847,-0.0106812,0.00793457,0.010376,0.00213623,0.00274658
1002,0.0413513,0.0305176,0.0378418,0.0167847,0.0328064,0.015564,-0.0238037,-0.00457764,0.0268555
1002,0.035553,-0.0689697,0.0544739,0.0126648,0.0198364,-0.0102234,0.0115967,0.01297,0.0416565
1002,0.0376892,-0.0738525,-0.0184631,-0.00167847,-0.0178528,0.0119019,0.0292969,-0.0320435,0.0137329
1002,0.0468445,-0.0474548,-0.0376892,-0.0088501,0.0315857,0.0125122,-0.0126648,-0.0247192,0.0410461
1002,0.0505066,0.0717163,-0.00305176,-0.00778198,0.0141907,-0.00732422,-0.00396729,-0.0106812,0.0341797
1002,0.00915527,0.131683,-0.00289917,-0.0297546,0.00442505,0.00579834,0.0300598,-0.0587463,0.00823975
1002,0.0332642,0.0997925,-0.0473022,0.0119019,0.0297546,0.0157166,-0.00747681,-0.0216675,0.0361633
1002,-0.0402832,0.03479,0.106201,-0.00595093,-0.00427246,-0.0120544,0.0062561,0.00640869,0.00305176
1002,-0.0190735,-0.03479,0.0636292,0.00137329,-0.0128174,0.0177002,0.0259399,-0.0152588,-0.0297546
1002,-0.0341797,-0.0546265,-0.0257874,0.0154114,0.027771,0.0108337,-0.00869751,0.0189209,0.00671387
1003,-0.032959,-0.0050354,-0.0230408,0.00564575,-0.0146484,-0.00808716,0.018158,-0.00976562,-0.0143433
1003,-0.0183105,0.0221252,-0.0549316,-0.0158691,0.0131226,0.00930786,0.0178528,-0.00579834,0.00106812
1003,0.0132751,-0.0382996,-0.0228882,0.0186157,0.00656128,0.00839233,-0.0112915,0.0657654,0.0170898
1003,0.0163269,-0.0532532,0.0614929,-0.0012207,-0.0193787,-0.00167847,0.0154114,0.0697327,-0.0140381
1003,0.0135803,-0.0521851,0.0512695,-0.000457764,0.0463867,0.0228882,-0.00442505,0.0314331,0.00579834
1003,0.00701904,-0.132751,0.0442505,0.0105286,0.0263977,0.00976562,-0.00595093,0.0137329,0.0112915
1003,0.0343323,-0.109406,0.0637817,-0.00732422,-0.00946045,0.0454712,0.0559998,-0.027771,0.0138855
1003,0.0488281,-0.124969,0.0100708,0.00839233,0.0248718,0.0202942,0.0170898,-0.00183105,0.0215149
1003,0.0050354,-0.142365,-0.00976562,0.00442505,0.0088501,0.0265503,0.00747681,0.00762939,0.0341797
1003,0.00793457,-0.0233459,-0.0167847,0.00823975,-0.00350952,0.00473022,0.0271606,0.00305176,0.00839233
1004,0.0241089,-0.0106812,-0.0366211,-0.0141907,0.0328064,0.0201416,-0.0154114,0.0231934,0.0204468
1004,0.0140381,0.012207,-0.0300598,0.00350952,0.00305176,-0.00350952,0.00488281,0.0366211,-0.000762939
1004,0.00747681,0.0856018,-0.0241089,-0.0115967,-0.000915527,0.0270081,0.0164795,0.0144958,-0.0189209
1004,0.0189209,0.067749,-0.0624084,-0.00411987,0.00808716,0.00640869,0.00549316,0.038147,0.00793457
1004,-0.0238037,0.00259399,-0.0535583,0.0120544,0.00183105,-0.00671387,0.000762939,0.0382996,0.00259399
1004,-0.0160217,0.0126648,0.00701904,-0.00579834,0.0114441,0.0332642,0.0131226,0.0012207,-0.000305176
1004,-0.0375366,-0.027771,0.105896,0.0294495,0.0341797,0.000762939,-0.00793457,0.0540161,0.0088501
1004,-0.0506592,0.0328064,0.0675964,0.0169373,0.00946045,-0.0106812,0.0210571,0.0196838,-0.0120544
1004,-0.0189209,0.0299072,0.0300598,0.00320435,0.0102234,0.0233459,0.0128174,-0.0137329,0.00350952
1004,-0.00411987,0.0442505,0.039978,0.0202942,0.0344849,0.00610352,-0.0180054,0.0265503,0.00671387
1005,-0.0361633,0.0532532,0.01297,0.0219727,-0.0062561,-0.000305176,0.0250244,0.00961304,0.0038147
1005,0.0358582,0.0352478,-0.0123596,-0.00915527,0.037384,0.0210571,-0.0050354,0.00656128,0.0296021
1005,0.0292969,-0.0389099,0.00823975,0.0222778,0.0160217,-0.0123596,-0.0106812,-0.00167847,0.0201416
1005,0.0112915,-0.0521851,-0.00183105,0.00686646,-0.0328064,-0.00137329,0.0204468,-0.0337219,-0.0157166
1005,0.0395203,-0.0675964,-0.0717163,-0.0193787,0.0146484,0.0210571,0.00488281,-0.000305176,0.0428772
1005,0.0283813,-0.0537109,-0.0427246,0.0195312,0.0267029,0.0205994,-0.00808716,0.0228882,0.0222778
1005,0.0125122,0.0439453,-0.0109863,0.0141907,0.00579834,0.0297546,0.0418091,-0.0228882,-0.0123596
1005,0.0515747,0.0119019,0.0125122,0.0114441,0.0201416,0.012207,-0.0172424,0.0140381,0.0398254
1005,-0.000152588,0.0402832,0.0236511,0.00640869,-0.00854492,-0.0117493,-0.00534058,0.0257874,0.0186157
1005,-0.0137329,0.0476074,0.0344849,-0.0164795,-0.00198364,0.00106812,0.0221252,0.0161743,0.00137329
1006,-0.0300598,0.0311279,0.0102234,0.0123596,0.0192261,-0.00396729,0.0038147,0.00747681,-0.000152588
1006,-0.018158,0.0234985,0.0538635,0.0350952,-0.0158691,-0.0112915,0.00900269,0.00335693,-0.0262451
1006,0.00869751,-0.000915527,-0.00198364,-0.0140381,-0.00137329,0.0152588,0.0151062,-0.00732422,-0.020752
1006,0.00564575,-0.0787354,-0.00869751,0.0183105,0.0125122,0.0062561,-0.017395,0.0245667,0.0184631
1006,-0.00717163,-0.0730896,0.0138855,0.0154114,-0.00595093,-0.0135803,0.0306702,0.0117493,-0.00793457
1006,0.0349426,0.0358582,-0.0253296,-0.00640869,0.0125122,-0.00366211,-0.00747681,0.00274658,0.00762939
1006,0.00595093,0.045929,-0.0109863,0.0431824,0.0193787,-0.00442505,0.0152588,0.0166321,0.0354004
1006,-0.00671387,0.0938416,0.0178528,0.00808716,0.00411987,0.00549316,0.0183105,-0.0195312,0.0230408
1006,0.027771,0.0810242,0.0119019,-0.0160217,0.0282288,0.0088501,0.00732422,-0.00595093,0.0396729
1006,0.0326538,0.0666809,0.0219727,0.0183105,0.00137329,-0.025177,-0.00259399,0.0158691,0.0486755
1007,-0.00167847,0.0721741,0.0332642,-0.00869751,-0.0123596,0.000610352,0.0210571,0.0247192,0.00305176
1007,0.025177,0.166626,0.00808716,-0.00930786,0.0157166,0.0163269,-0.00610352,0.00137329,0.0012207
1007,0.012207,0.132141,0.00473022,0.0257874,0.0012207,-0.00686646,-0.00778198,0.0257874,0.00701904
1007,0.0227356,0.0883484,0.0167847,-0.0123596,-0.00549316,0.0309753,0.0172424,0.00701904,0.0175476
1007,0.0164795,-0.0846863,-0.00427246,0.00900269,0.0486755,0.0297546,0.000457764,0.0282288,0.0436401
1007,0.0215149,-0.114594,0.0169373,0.0164795,-0.00106812,0.00183105,0.0343323,0.0289917,0.0158691
1007,0.00961304,-0.114288,0.0183105,0.00137329,0.00106812,0.0100708,0.0318909,-0.0210571,0.0143433
1007,0.0143433,-0.109558,-0.032959,-0.00442505,0.0291443,0.0146484,0.00991821,-0.0218201,0.019989
1007,-0.0238037,-0.0590515,-0.120544,0.0170898,-0.000305176,-0.00335693,-0.0210571,-0.00823975,0.0189209
1007,-0.030365,0.102997,-0.152435,0.0108337,-0.010376,0.0350952,0.0297546,-0.0376892,0.00595093
1008,0.0166321,0.133667,-0.106812,-0.00106812,0.019989,0.0144958,-0.0112915,-0.00183105,0.0296021
1008,0.0088501,0.10788,-0.00335693,0.0201416,0.0134277,0.00930786,0.035553,-0.0169373,-0.0193787
1008,0.0326538,0.0682068,0.126953,0.000610352,0.00747681,0.0323486,0.0196838,-0.00900269,0.0231934
1008,0.0489807,0.0131226,0.242004,0.00793457,0.0227356,0.0175476,0.00411987,0.0115967,0.0389099
1008,0.0489807,0.0369263,0.201721,0.0111389,-0.00946045,-0.0131226,-0.00198364,0.0195312,0.0105286
1008,0.0389099,0.0872803,0.0761414,-0.01297,-0.0112915,0.0161743,0.00228882,-0.0396729,-0.012207
1008,0.0357056,0.0563049,-0.0248718,0.0170898,0.0422668,0.00579834,-0.0187683,0.0213623,0.0192261
1008,-0.018158,-0.000152588,-0.0276184,0.00213623,-0.0222778,-0.0166321,0.0340271,0.00534058,-0.00579834
1008,-0.0135803,0.00488281,-0.0180054,-0.0309753,-0.00732422,0.0257874,0.0126648,-0.0119019,-0.0050354
1008,-0.00671387,-0.0834656,0.000457764,0.00167847,0.0038147,-0.00823975,-0.0100708,0.0549316,0.00411987
1009,0.0141907,-0.130768,0.0128174,-0.00976562,-0.0299072,-0.022583,0.0050354,0.0500488,0.00823975
1009,0.0221252,-0.121155,0.0192261,-0.00778198,-0.00152588,0.0456238,0.0100708,0.0050354,0.00198364
1009,0.0158691,-0.143738,0.0601196,0.0152588,0.00305176,-0.00228882,0.0100708,0.0280762,0.0143433
1009,0.0285339,-0.108032,0.0398254,-0.00488281,-0.00442505,0.0128174,0.0317383,0.0158691,-0.00747681
1009,0.0569153,-0.0904846,-0.0482178,-0.000915527,0.0102234,0.0389099,-0.00747681,0.0177002,0.035553
1009,0.0437927,-0.0598145,-0.0363159,0.0144958,0.0311279,0.00396729,0.0238037,0.0492859,0.0161743
1009,0.000305176,0.0411987,0.100708,-0.01297,-0.00198364,0.00534058,0.00915527,0.00900269,0.000305176
1009,0.0521851,0.0440979,0.0454712,0.00854492,-0.0160217,0.00869751,-0.00564575,0.0340271,-0.0100708
1009,0.0186157,0.0323486,0.0308228,0.014801,-0.0198364,-0.0108337,0.020752,0.0256348,0.000305176
1009,-0.0271606,0.0364685,0.00915527,-0.0190735,0.00854492,0.0184631,-0.00320435,-0.0012207,-0.00457764
1010,-0.0102234,-0.00396729,-0.0358582,0.0250244,0.0167847,-0.00473022,-0.0137329,0.00488281,0.0247192
1010,-0.0270081,-0.000610352,0.01297,0.00976562,0.0143433,-0.0233459,0.014801,0.0546265,-0.037384
1010,-0.0218201,0.09552,0.00793457,0.00534058,0.0125122,0.0141907,0.0119019,0.00106812,-0.0143433
1010,0.00747681,0.0648499,0.0209045,0.0189209,0.0320435,0.00274658,-0.00518799,0.0289917,0.012207
1010,-0.0126648,0.0939941,0.0538635,0.00747681,-0.00457764,0.0248718,0.0192261,0.00534058,-0.0109863
1010,-0.022583,0.0770569,-0.0337219,-0.0228882,0.0230408,0.0366211,0.0100708,-0.00152588,-0.00961304
1010,0.010376,0.0109863,-0.109558,0.0222778,0.0338745,0.00427246,-0.0106812,0.00991821,0.0360107
1010,-0.00427246,-0.0346375,-0.0576782,0.0163269,0.00534058,0.00778198,0.00717163,0.0144958,0.00366211
1010,0.0263977,-0.0386047,-0.0172424,-0.00900269,0.0062561,-0.00823975,-0.0227356,-0.00900269,0.0239563
1010,0.0242615,-0.0506592,-0.00152588,0.0366211,0.01297,-0.00549316,0.0151062,0.0279236,0.0338745
1011,0.0151062,0.000305176,0.0639343,0.0106812,-0.0274658,-0.000610352,0.00534058,0.00717163,-0.00915527
1011,0.0292969,0.0219727,0.0201416,-0.012207,0.0311279,0.0360107,0.000762939,0.00274658,0.0105286
1011,0.0421143,0.00335693,-0.0273132,0.0343323,0.0161743,-0.0112915,-0.00793457,0.0445557,0.0584412
1011,0.0430298,0.0527954,-0.0436401,-0.00610352,-0.0254822,0.0253296,0.0282288,0.00213623,0.0448608
1011,0.0434875,0.0942993,-0.0488281,0.00747681,0.00946045,-0.00488281,0.00396729,0.0396729,0.0418091
1011,0.0137329,0.159149,-0.0204468,0.020752,-0.0134277,-0.0135803,0.0210571,0.019989,0.0105286
1011,0.0276184,0.145416,0.0294495,0.0140381,0.0424194,0.0308228,0.0212097,0.00900269,0.0151062
1011,0.0518799,0.0531006,0.0514221,0.0105286,0.063324,-0.00610352,-0.00747681,0.0202942,0.0419617
1011,0.014801,0.0163269,0.0382996,0.0137329,0.00671387,-0.0105286,0.0202942,-0.0102234,-0.0172424
1011,0.0604248,0.0134277,-0.00717163,-0.0196838,0.0135803,0.0302124,0.00320435,-0.0210571,-0.00946045
1012,0.0413513,0.0401306,0.0219727,0.000305176,0.0186157,-0.0219727,-0.00854492,-0.000457764,0.018158
1012,0.0413513,0.0883484,0.025177,-0.00244141,-0.00167847,0.0100708,0.0259399,-0.0167847,-0.000915527
1012,0.0196838,0.21225,-0.0012207,0.0221252,0.032196,0.0143433,0.014801,-0.0196838,0.00762939
1012,-0.00793457,0.370789,-0.000762939,0.0325012,0.0183105,0.010376,0.00610352,0.0309753,0.0100708
1012,-0.0164795,0.384827,0.0062561,0.0164795,0.000915527,0.0230408,0.0294495,0.00808716,-0.0283813
1012,-0.00732422,0.320587,-0.0138855,0.014801,0.0167847,0.00534058,-0.00244141,0.0546265,0.0305176
1012,-0.0970459,0.256958,-0.00610352,0.00518799,-0.00320435,-0.0128174,0.0248718,0.0364685,0.0119019
1012,-0.0987244,0.092926,0.0328064,-0.00839233,-0.00167847,-0.00488281,0.0132751,0.0120544,-0.00305176
1012,-0.0796509,-0.19577,-0.00732422,0.00244141,0.0132751,0.000457764,-0.0202942,0.0250244,0.0248718
1012,-0.0590515,-0.332031,0.0756836,-0.000152588,-0.0146484,-0.0169373,-0.00564575,-0.0105286,0.00274658
1013,0.00946045,-0.462952,0.0714111,-0.0157166,-0.000610352,0.00610352,0.00549316,-0.022583,-0.0221252
1013,0.0234985,-0.535889,0.0430298,0.00961304,-0.0131226,0.0164795,0.0105286,-0.0106812,0.0205994
1013,0.0320435,-0.481567,0.0189209,0.00930786,-0.035553,-0.00961304,0.0193787,-0.0247192,-0.015564
1013,0.0506592,-0.289307,-0.0192261,-0.0062561,0.00610352,0.0138855,0.019989,-0.000305176,-0.0158691
1013,0.0204468,-0.122833,-0.0340271,0.0254822,-0.0012207,0.00183105,-0.01297,0.0163269,0.0286865
1013,0.0227356,-0.0062561,0.00854492,0.0360107,0.00549316,0.00457764,0.0227356,0.0050354,-0.0140381
1013,0.0360107,-0.0489807,-0.0410461,0.00473022,0.091095,0.0241089,0.014801,0.0250244,-0.00244141
1013,0.0140381,-0.0468445,-0.00366211,0.0192261,0.0595093,-0.00900269,-0.0112915,0.0419617,-0.0154114
1013,-0.0228882,0.0224304,0.0656128,0.00534058,0.00183105,-0.0221252,0.0112915,0.0390625,0.0189209
1013,0.035553,0.0588989,0.00488281,-0.0300598,0.0137329,0.00686646,0.0114441,0.0436401,0.0338745
1014,0.0219727,0.0202942,0.00152588,0.0137329,0.0300598,0.0180054,0.0227356,0.00686646,0.0332642
1014,0.0434875,-0.0405884,0.00534058,-0.0196838,-0.00808716,0.0209045,0.0311279,-0.0241089,0.0187683
1014,0.0338745,-0.0872803,-0.0141907,0.00701904,0.01297,0.0289917,-0.0088501,0.0050354,0.0544739
1014,-0.00198364,-0.11322,-0.0257874,0.0247192,0.0276184,0.0236511,0.0262451,-0.00854492,0.00961304
1014,0.00854492,-0.0733948,0.00167847,0.0088501,0.00808716,0.0289917,0.0190735,-0.0230408,0.0364685
1014,0.0218201,-0.133514,-0.0794983,0.0102234,0.0221252,0.0285339,-0.00411987,0.0358582,0.0515747
1014,0.0012207,-0.0883484,-0.0289917,0.019989,-0.00549316,-0.00183105,0.00976562,0.038147,0.0088501
1014,0.0509644,-0.00137329,-0.0440979,-0.0219727,-0.022583,0.0111389,0.0088501,0.070343,-0.00549316
1014,0.0332642,0.0764465,0.017395,0.00198364,0.00732422,-0.00549316,-0.014801,0.0814819,0.0274658
1014,0.00488281,0.0985718,0.037384,0.0440979,-0.0138855,0.0126648,0.00579834,0.0143433,-0.0141907
1015,0.0187683,0.140076,-0.00915527,-0.019989,0.0160217,0.0222778,0.0088501,0.00289917,0.0222778
1015,0.0271606,0.159912,-0.0202942,0.0239563,0.0260925,-0.0154114,-0.0141907,-0.0219727,0.0128174
1015,0.00411987,0.150909,-0.0126648,-0.00167847,-0.0114441,-0.000305176,0.0213623,-0.0172424,-0.00366211
1015,0.0442505,0.145264,-0.017395,0.00411987,0.0157166,0.0239563,0.0320435,-0.0469971,0.0157166
1015,0.025177,0.130157,-0.00244141,0.0283813,0.0160217,-0.00762939,-0.00457764,0.0288391,0.025177
1015,0.0135803,0.116272,0.0050354,-0.00366211,-0.0193787,0.022583,0.0262451,0.0393677,-0.00457764
1015,0.0311279,0.150604,-0.0514221,-0.00167847,0.00457764,0.000610352,0.0115967,0.00991821,0.00686646
1015,0.0161743,0.0718689,-0.0636292,0.000762939,0.012207,0.0128174,-0.00717163,0.0483704,0.0430298
1015,0.0317383,0.0312805,0.0587463,-0.00747681,-0.0193787,0.00839233,0.0274658,0.0326538,0.0167847
1015,0.0492859,-0.0828552,0.134583,0.0154114,0.0289917,0.0190735,-0.00488281,0.0231934,0.0408936
1016,0.0111389,-0.0999451,0.065918,0.0131226,0.0193787,-0.00183105,0.00320435,0.0247192,0.032196
1016,0.0234985,-0.0369263,0.0198364,-0.010376,-0.00595093,0.0132751,0.0102234,0.00137329,0.01297
1016,0.0370789,0.0132751,-0.0088501,0.0350952,0.0340271,0.0196838,0,0.038147,0.0476074
1016,-0.0427246,0.0279236,0.0422668,0.00473022,-0.0215149,0.00595093,0.0257874,0.0219727,0.00686646
1016,-0.0335693,0.0491333,0.0598145,-0.0135803,0.0102234,0.0318909,0.0292969,0.00595093,0.0196838
1016,0.0137329,0.0236511,0.040741,-0.00595093,0.015564,0.0126648,0.0160217,0.0106812,0.0164795
1016,-0.0213623,0.0300598,-0.0164795,-0.00579834,0.00305176,-0.0119019,0.00427246,-0.0384521,0.0366211
1016,0.0152588,0.0941467,-0.124664,-0.0149536,0.0198364,0.027771,0.0234985,-0.0515747,-0.0212097
1016,0.0375366,0.0442505,-0.0881958,0.0175476,0.010376,0.0210571,0.0114441,-0.00900269,0.0271606
1016,0.0311279,0.0679016,-0.00106812,0.0267029,-0.0216675,-0.0231934,0.0314331,-0.00946045,0.00350952
1017,0.0601196,0.0791931,0.0575256,0.00640869,-0.00457764,0.017395,0.00869751,-0.00869751,0.0123596
1017,0.092926,0.0592041,0.121155,0.0137329,0.0311279,0.0270081,0.00839233,0.00823975,0.0326538
1017,0.087738,0.0296021,0.233612,0.0263977,-0.00167847,0.00915527,0.0100708,0.0137329,0.0320435
1017,0.0978088,-0.0160217,0.108337,0.0144958,0.0198364,0.0291443,0.0224304,0.015564,0.0212097
1017,0.0628662,-0.0653076,0.0157166,0.0326538,0.01297,-0.00457764,0.0140381,0.0393677,0.0262451
1017,-0.0117493,-0.0212097,0.0125122,0.00350952,-0.00335693,0.0131226,0.00640869,-0.00183105,-0.00534058
1017,0.0012207,-0.00488281,-0.00152588,0.00137329,0.0236511,0.0209045,-0.0265503,0.0387573,0.0357056
1017,-0.0517273,-0.00534058,0.00564575,0.0375366,0.0050354,-0.00350952,0.00442505,0.0234985,0.00534058
1017,-0.0485229,-0.00640869,0.000610352,0.0311279,0.00488281,0.00259399,0.0209045,-0.0212097,-0.00137329
1017,-0.000915527,-0.075531,-0.0219727,0.00701904,0.0268555,0.0262451,0.0114441,0.00518799,0.0105286
1018,-0.0242615,-0.0926208,0.0331116,-0.0062561,-0.00991821,0.000457764,0.00595093,0.03479,-0.0180054
1018,0.0012207,-0.0115967,0.0132751,-0.00289917,-0.0213623,0.0302124,0.0170898,-0.0276184,-0.0389099
1018,0.0114441,-0.00152588,-0.0386047,0.030365,0.0215149,0.0140381,-0.018158,0.0135803,-0.00671387
1018,-0.0308228,-0.0038147,-0.0218201,0.0212097,0.0161743,-0.0175476,0.00106812,0.0160217,0.000152588
1018,-0.0360107,0.0143433,0.00976562,-0.0212097,-0.0169373,0.00900269,-0.00366211,-0.0286865,0.00854492
1018,-0.0187683,-0.00549316,0.00869751,-0.0183105,-0.0163269,0.0140381,0.00350952,0.0102234,0.00366211
1018,-0.014801,0.0166321,0.070343,-0.000915527,-0.0114441,-0.0106812,0.0204468,-0.00137329,-0.0236511
1018,0.0172424,0.0405884,0.0474548,0.00366211,0.00564575,0.0257874,0.0292969,-0.0231934,-0.0286865
1018,0.032959,0.0132751,0.0286865,0.0224304,0.0289917,-0.00183105,-0.022583,-0.0228882,0.0106812
1018,0.00488281,0.0109863,0.0837708,0.00534058,0.0117493,0.00778198,0.0447083,-0.0354004,-0.025177
1019,0.0485229,0.0593567,-0.0137329,-0.0152588,0.0100708,0.0274658,0.0283813,-0.019989,-0.000152588
1019,0.00732422,0.042572,0.0105286,0.0270081,0.00106812,0.000305176,0.0448608,0.0352478,0.010376
1019,-0.0802612,0.0447083,0.0161743,-0.00640869,0.0158691,0.0131226,0.087738,0.00457764,-0.0279236
1019,-0.0221252,0.00976562,-0.0201416,-0.00808716,0.00839233,0.00167847,0.014801,0.0297546,0.0180054
1019,-0.0386047,0.0184631,-0.0137329,-0.00213623,0.00335693,-0.012207,0.0175476,0.0323486,0.00106812
1019,0.0151062,0.129089,-0.0236511,-0.00595093,-0.0137329,0.0234985,0.0341797,-0.0038147,-0.0209045
1019,0.0514221,0.224304,-0.0259399,0.012207,0.0132751,0.0123596,-0.00396729,-0.0152588,0.037384
1019,0.0549316,0.350342,0.00564575,-0.0160217,-0.0120544,0.00259399,-0.00793457,-0.00946045,0.0137329
1019,0.071106,0.488129,0.0312805,-0.00946045,-0.0241089,0.0202942,-0.00793457,-0.00137329,-0.0149536
1019,0.00808716,0.411072,-0.0088501,0.00808716,0.0192261,0.000610352,-0.0354004,0.012207,0.0234985
1020,-0.030365,0.29129,-0.0430298,0.01297,0.0196838,0.0312805,0.045166,0.0105286,0.00488281
1020,-0.0683594,0.119324,-0.0418091,-0.0134277,0.0250244,0.0166321,0.0105286,0.0140381,-0.00167847
1020,-0.103455,-0.117035,-0.0520325,0.0260925,0.00549316,-0.0151062,0.0259399,0.0263977,0.0318909
1020,-0.0538635,-0.232697,-0.025177,0.018158,-0.0256348,0.00518799,0.0352478,0.00335693,0.0146484
1020,-0.0364685,-0.197296,-0.0234985,0.00198364,0.00564575,0.0128174,0.00961304,-0.0131226,0.0398254
1020,-0.0201416,-0.240479,0.00198364,0.0204468,0.010376,-0.00854492,0.00213623,0.0245667,0.0282288
1020,-0.0256348,-0.191498,0.0366211,-0.000305176,-0.00259399,0.0221252,0.0128174,-0.00289917,0.00305176
1020,0.0170898,-0.130463,0.00228882,0.0125122,0.00869751,-0.00732422,-0.0131226,-0.00427246,0.0415039
1020,0.00534058,-0.0428772,0.00442505,0.0299072,0.0102234,-0.0308228,-0.00213623,0.0204468,0.0187683
1020,0.00839233,0.0393677,-0.0344849,-0.0117493,-0.0106812,0.0137329,0.0370789,0.0143433,-0.00854492
1021,0.0511169,0.0146484,-0.0250244,0.00259399,0.0335693,0,0.00518799,0.0384521,0.0354004
1021,0.0125122,-0.0906372,0.0440979,0.0195312,-0.0198364,0.00198364,0.0125122,0.000152588,0.0157166
1021,0.00869751,-0.191956,0.0480652,-0.0109863,0.00442505,0.0239563,0.0231934,-0.0474548,-0.0109863
1021,0.00701904,-0.286102,0.00366211,0.0178528,0.0296021,0.00701904,-0.0205994,-0.00701904,0.0375366
1021,-0.058136,-0.307922,0.00946045,-0.000915527,-0.0167847,0.00442505,-0.000152588,0.00457764,0.0167847
1021,-0.00259399,-0.359039,0.00900269,-0.0294495,-0.0132751,0.00839233,0.0120544,0.0160217,-0.00335693
1021,-0.000762939,-0.328064,0.0105286,0.0108337,0.0038147,-0.00488281,-0.0468445,0.035553,0.0265503
1021,-0.00869751,-0.22171,0.0189209,-0.00305176,-0.0236511,0.000610352,0.0291443,0.00549316,-0.0222778
1021,0.0547791,-0.102844,0.0726318,-0.00808716,0.0134277,0.0128174,0.0337219,0.00228882,-0.0401306
1021,0.0515747,-0.0314331,0.0050354,0.0128174,0.042572,0.00488281,-0.0102234,0.0575256,0.00900269
1022,0.0239563,0.0679016,0.0274658,-0.0215149,0.00671387,0.0125122,0.0157166,0.0305176,-0.0234985
1022,0.0401306,0.038147,-0.0106812,-0.0189209,0.0367737,-0.00564575,-0.0212097,0.0154114,0.01297
1022,0.0488281,0.0691223,0.00137329,0.0250244,0.00686646,-0.0157166,-0.0137329,0.030365,0.0102234
1022,0.068512,0.13504,-0.015564,-0.0112915,-0.0112915,0.00686646,-0.0163269,-0.00152588,0.0123596
1022,0.0637817,0.153351,0.00259399,0.0100708,0.0363159,0.0306702,-0.018158,-0.0112915,0.0216675
1022,0.03479,0.115967,-0.0161743,0.0540161,0.017395,0.00534058,0.0238037,-0.00808716,0.0318909
1022,0.0656128,0.124207,-0.0012207,0.000610352,-0.0170898,0.0427246,0.0312805,-0.0570679,-0.00320435
1022,0.080719,0.0608826,-0.0244141,0.0164795,0.0276184,0.0062561,-0.0135803,-0.0102234,0.0312805
1022,-0.00564575,-0.0469971,0.00137329,0.00671387,-0.0166321,-0.00732422,0.0175476,-0.0215149,-0.00793457
1022,0.0012207,-0.0595093,0.0360107,-0.0166321,0.00701904,0.0386047,0.0164795,0.0106812,-0.00610352
1023,0.0328064,-0.0495911,0.0521851,0.0343323,0.0115967,0.00808716,-0.00823975,0.0126648,-0.0050354
1023,-0.0253296,-0.0285339,0.0694275,0.0202942,-0.00610352,0.0120544,0.00762939,0.00808716,-0.000152588
1023,0.00137329,0.0520325,0.0332642,-0.0140381,0.0167847,0.035553,0.00549316,-0.0112915,0.0189209
1023,-0.0608826,0.0250244,0.0645447,0.0332642,0.012207,0.0062561,-0.00106812,-0.00320435,0.035553
1023,-0.075531,0.0340271,0.0708008,0.0186157,0.00228882,0.00259399,0.01297,-0.00274658,-0.0186157
1023,-0.0532532,0.00778198,0.0276184,-0.00900269,0.0300598,0.0292969,0.00396729,0.00823975,0.0265503
1023,-0.0479126,0.0166321,0.0456238,0.0279236,0.00671387,-0.017395,-0.0154114,0.0141907,0.0328064
1023,-0.0257874,0.0740051,0.0285339,-0.00823975,-0.0177002,0.00213623,0.0318909,-0.00595093,-0.0151062
1023,0.040741,0.0817871,0.00244141,0.0338745,0.038147,0.00488281,-0.00808716,-0.0151062,0.0480652
1023,0.0254822,0.0735474,0.0152588,0.0309753,0.0262451,-0.0109863,0.0132751,0.0215149,0.00640869
1024,-0.0100708,0.126343,0.0141907,-0.00656128,-0.0062561,0.0222778,0.0372314,-0.00778198,0.0128174
1024,0.0363159,0.214844,-0.0132751,0.0288391,0.0210571,0.00259399,-0.017395,0.0559998,0.0393677
1024,-0.00595093,0.323639,-0.0524902,0.0466919,0.00244141,-0.00595093,0.038147,0.0424194,0.0349426
1024,0.0288391,0.332794,-0.0808716,0.00106812,-0.0123596,0.0328064,0.0369263,0.0262451,0.0204468
1024,0.0422668,0.219269,-0.0933838,-0.00747681,0.0189209,0.0247192,0.00350952,0.0450134,0.0457764
1024,0.00411987,0.0886536,0.0601196,0.0158691,-0.00946045,-0.0184631,-0.0111389,0.00473022,0.0253296
1024,-0.00564575,-0.0396729,-0.00717163,-0.0204468,0.000457764,0.00915527,0.00778198,-0.032959,0.0152588
1024,0.0296021,-0.157776,0.0108337,-0.0123596,0.0254822,0.0100708,-0.0120544,-0.0160217,0.0382996
1024,0.0244141,-0.243683,0.0982666,0.00366211,-0.00259399,-0.00595093,-0.000152588,-0.0102234,0.0421143
1024,0.0158691,-0.325775,0.0546265,0.0038147,0.00946045,0.0189209,0.00335693,-0.032196,0.0305176
1025,0.0244141,-0.391693,0.038147,0.0143433,0.0282288,0.00274658,-0.00854492,0.0350952,0.0497437
1025,0.0462341,-0.312195,0.0314331,-0.00183105,-0.0114441,0.000610352,0.0192261,0.0311279,0.0314331
1025,0.0782776,-0.0746155,0.0419617,-0.00946045,-0.00839233,0.0241089,0.00259399,-0.00259399,0.0230408
1025,0.105743,0.0730896,0.0276184,0.0222778,0.00350952,0.00411987,0.00137329,0.0559998,0.032196
1025,0.0202942,0.113373,0.0382996,0.0263977,-0.0172424,-0.0158691,0.012207,0.0386047,-0.0163269
1025,0.0192261,0.0854492,0.00396729,0.000152588,0.0222778,0.014801,-0.00228882,0.0210571,0.00228882
1025,0.0395203,0.0576782,-0.00183105,0.0204468,0.00427246,0.00320435,-0.0213623,0.0340271,0.042572
1025,0.09552,0.025177,0.00579834,0.0120544,-0.00732422,0.000915527,0.032196,0.032196,-0.0257874
1025,0.162659,0.0939941,-0.00305176,-0.000305176,0.0344849,0.039978,0.00488281,0.0184631,-0.0280762
1025,0.111542,0.0874329,-0.000762939,0.0282288,-0.00106812,-0.00213623,-0.0152588,0.0482178,0.00396729
1026,0.0460815,0.122375,0.0218201,0.0088501,-0.00701904,0.0152588,0.00610352,0.0367737,-0.000762939
1026,0.0184631,0.178833,-0.00305176,-0.00823975,0.00213623,0.0215149,0.0111389,0.0233459,-0.0244141
1026,-0.00335693,0.186005,-0.0511169,0.0143433,0.0239563,-0.0231934,-0.0166321,0.0315857,-0.0106812
1026,-0.0540161,0.256653,-0.00411987,-0.00320435,-0.0106812,0.0163269,0.00656128,0.0154114,-0.0210571
1026,-0.0230408,0.255127,-0.015564,-0.0190735,-0.00305176,0.00579834,-0.00183105,0.0128174,0.00106812
1026,-0.0286865,0.152283,0.00274658,0.0239563,-0.000152588,-0.0221252,0.00213623,0.0274658,0.0306702
1026,-0.0474548,0.0538635,-0.0863647,-0.0187683,-0.00686646,0.00747681,0.0270081,0.0396729,0.00595093
1026,-0.0927734,-0.0183105,-0.130005,0.00900269,0.0231934,0.0326538,-0.0267029,0.0448608,0.0421143
1026,-0.181732,-0.063324,-0.0657654,0.0427246,0.00808716,0.00106812,0.0241089,-0.0108337,0.0564575
1026,-0.205994,-0.0552368,0.0408936,0.00839233,0.0169373,0.0350952,0.00823975,-0.012207,0.0408936
1027,-0.121002,-0.0915527,0.0820923,0.0115967,0.0354004,0.0140381,-0.0131226,-0.0242615,0.0674438
1027,-0.123444,-0.0524902,0.232391,0.0172424,-0.0160217,0.00457764,0.0248718,-0.0602722,0.0415039
1027,-0.0413513,-0.0370789,0.136871,-0.000457764,-0.015564,0.00396729,0.0323486,-0.0737,0.0183105
1027,-0.0242615,-0.0654602,0.0312805,0.0288391,0.0256348,0.0119019,-0.00244141,-0.0276184,0.0442505
1027,-0.0149536,-0.0436401,0.0617981,0.0289917,-0.00762939,0.0163269,0.0404358,-0.0123596,0.0131226
1027,-0.00823975,-0.0498962,0.0382996,-0.0132751,0.00579834,0.0334167,0.018158,-0.027771,0.0186157
1027,-0.00152588,-0.119781,0.0343323,0.0132751,0.0100708,0.00106812,-0.0192261,0.0038147,0.0183105
1027,-0.00320435,-0.0547791,0.0128174,0.012207,-0.0146484,0.00350952,0.0389099,-0.0135803,-0.00671387
1027,0.0590515,-0.0210571,-0.0216675,0.000762939,0.00869751,0.0131226,0.0408936,-0.0190735,0.0163269
1027,0.0624084,0.0491333,-0.0126648,0.0268555,0.0163269,-0.0135803,0.0285339,-0.0213623,-0.00335693
1028,0.0782776,0.279694,-0.0245667,-0.0180054,-0.0248718,0.0119019,0.0415039,-0.0592041,-0.038147
1028,0.134125,0.278931,-0.0393677,-0.000915527,0.00701904,0.0334167,0.00427246,0.0227356,-0.0222778
1028,0.119171,0.141449,-0.0363159,0.0228882,0.0167847,0.0038147,0.00854492,0.0590515,-0.0212097
1028,0.113373,0.085907,-0.0126648,-0.00564575,-0.00656128,0.000762939,0.0717163,0.0349426,-0.0671387
1028,0.100403,-0.0588989,-0.0245667,-0.0210571,0.0218201,0.0262451,-0.0205994,0.0300598,-0.0256348
1028,0.0219727,-0.14328,-0.000610352,-0.00595093,0.0325012,0.00183105,-0.0123596,0.0440979,-0.0105286
1028,-0.0674438,-0.144043,0.0062561,-0.0184631,-0.00656128,0.00534058,0.0152588,0.0204468,-0.0132751
1028,-0.071106,-0.114441,-0.00839233,-0.00579834,0.0276184,-0.00366211,-0.00595093,0.0453186,0.00717163
1028,-0.0204468,0.00778198,0.0291443,0.027771,-0.0012207,-0.0114441,-0.0233459,0.0505066,0.0238037
1028,-0.0132751,0.0758362,0.0163269,-0.00946045,0.000457764,0.0402832,-0.00579834,0.00991821,0.00534058
1029,0.0115967,-0.000152588,-0.0300598,0.0204468,0.0166321,0.00961304,-0.045929,0.040741,0.0486755
1029,0.0204468,-0.0680542,0.0341797,0.0215149,-0.0244141,-0.0144958,-0.0413513,0.0350952,-0.0193787
1029,0.0924683,-0.0975037,-0.000152588,0.00289917,0.00686646,0.0146484,-0.0561523,0.0238037,-0.019989
1029,0.0740051,-0.167847,-0.0215149,0.0527954,-0.000152588,-0.000610352,-0.0761414,0.040741,0.00656128
1029,-0.0392151,-0.0798035,0.0178528,0.0088501,0.000762939,-0.000915527,-0.0149536,0.0434875,-0.0117493
1029,-0.0563049,-0.0604248,-0.0125122,-0.00839233,0.0169373,0.0253296,-0.00686646,0.0138855,-0.0291443
1029,-0.0585938,-0.0582886,0.027771,0.0282288,0.0160217,-0.00823975,0.0202942,0.0285339,0.0186157
1029,-0.0138855,0.0645447,0.0616455,0.00228882,-0.0302124,-0.00717163,0.0654602,0.020752,0.00152588
1029,0.0587463,0.206604,0.00839233,0.0166321,0.0160217,0.0204468,0.0309753,0.0382996,0.0126648
1029,0.0326538,0.250244,0.015564,0.0190735,-0.0305176,-0.0216675,-0.00305176,0.0502014,0.0642395
1030,0.00869751,0.270081,0.0297546,-0.0126648,-0.0112915,0.0178528,0.0140381,0.00518799,0.0177002
1030,0.0184631,0.222473,0.0131226,0.00656128,0.0202942,-0.0257874,-0.0167847,0.0328064,0.0457764
1030,-0.0289917,0.107574,-0.020752,0.0132751,-0.000152588,-0.00595093,0.0189209,0.0422668,0.0178528
1030,-0.00823975,-0.0126648,-0.0424194,-0.0178528,0.00915527,0.010376,0.0108337,0.000305176,-0.00244141
1030,0.0210571,-0.149536,-0.0639343,0.00976562,0.065155,0.00640869,0.0137329,0.0166321,0.0241089
1030,0.0238037,-0.171204,-0.0112915,0.0146484,0.0299072,-0.00183105,0.0334167,0.0286865,-0.000915527
1030,0.0485229,-0.194702,-0.0219727,0.00350952,0.0259399,0.0201416,0.0379944,0.0166321,0.00579834
1030,0.0369263,-0.174255,-0.0088501,0.0166321,0.0543213,0.0117493,-0.00991821,0.0434875,0.0315857
1030,-0.0254822,-0.1474,-0.00488281,0.0166321,0.0236511,0.0265503,0.0332642,0.0332642,0.000762939
1030,-0.0286865,-0.0415039,0.0158691,-0.00732422,0.0106812,0.0408936,-0.0205994,-0.00946045,0.0149536
1031,0.0050354,0.0292969,0.0862122,0.0296021,-0.0314331,0.0300598,-0.0227356,0.037384,0.037384
1031,-0.015564,0.0131226,0.0790405,-0.0250244,-0.0627136,0.00869751,-0.00564575,0.00762939,-0.000915527
1031,0.0465393,-0.105286,0.0279236,-0.0120544,-0.0292969,0.0244141,-0.0193787,0.00640869,-0.0152588
1031,0.0547791,-0.0996399,0.0550842,0.00732422,0.0250244,0.00717163,0.0219727,0.0273132,0.0390625
1031,0.0479126,-0.0282288,0.0636292,0.017395,-0.00289917,0.0367737,0.037384,0.0222778,0.0212097
1031,0.0787354,-0.0120544,-0.00823975,-0.0100708,0.0244141,0.0244141,0.0135803,0.00167847,0.0979614
1031,0.0769043,-0.0708008,0.0213623,0.0160217,0.0512695,0.00717163,0.00320435,0.0448608,0.0520325
1031,0.0727844,-0.0648499,-0.00579834,0.00656128,0.0268555,0.0038147,0.0512695,0.0880432,0.0486755
1031,0.108948,-0.065918,0.00350952,0.00610352,0.00991821,0.00549316,0.0274658,0.0942993,0.0506592
1031,0.0636292,-0.0511169,0.0137329,0.0480652,-0.00564575,0.00305176,0.0195312,0.0822449,0.0161743
1032,0.0971985,-0.0138855,0.00656128,0.00961304,-0.0300598,0.010376,0.042572,-0.0105286,-0.0126648
1032,0.0842285,-0.0154114,-0.0256348,0.0132751,-0.00823975,0.0273132,0.0312805,-0.0474548,-0.043335
1032,0.057373,0.0384521,0.0088501,0.0259399,-0.0164795,0.00183105,0.018158,-0.0758362,-0.0694275
1032,0.0921631,0.127869,-0.0253296,-0.0120544,-0.00778198,0.0172424,0.00869751,-0.0296021,-0.111694
1032,0.0442505,0.295715,-0.0146484,0.0132751,-0.00167847,0.00961304,-0.0108337,-0.0230408,-0.0636292
1032,0.0428772,0.331116,0.020752,0.0201416,-0.0175476,0.0219727,0.0123596,-0.0260925,-0.0595093
1032,0.0309753,0.334015,0.00259399,0.0167847,0.0762939,0.0178528,-0.0230408,-0.0506592,-0.0149536
1032,0.0224304,0.178528,-0.0205994,-0.00778198,0.0665283,-0.0167847,-0.00732422,-0.0050354,0.00839233
1032,-0.0642395,0.0875854,0.0424194,0.0125122,0.0114441,0.00289917,0.0302124,0.000457764,-0.0170898
1032,-0.0901794,-0.0361633,0.00610352,-0.0210571,0.0454712,0.0216675,-0.0212097,-0.0401306,0.0668335
1033,-0.159454,-0.195923,0.0331116,0.0352478,0.00930786,-0.00534058,-0.0427246,-0.00350952,0.0532532
1033,-0.193176,-0.217133,0.0166321,-0.00595093,-0.022583,0.0166321,0.0088501,-0.0415039,0.0544739
1033,-0.104828,-0.220947,-0.0193787,-0.000610352,-0.00762939,0.00595093,-0.00778198,-0.0257874,0.0653076
1033,-0.0411987,-0.26123,-0.0190735,0.037384,0.000915527,-0.0189209,-0.0309753,-0.0120544,0.102844
1033,0.0238037,-0.189972,-0.0115967,-0.0202942,-0.0247192,0.0196838,-0.00244141,-0.0335693,0.0846863
1033,0.0259399,-0.0735474,-0.0358582,-0.00137329,0.0328064,0.0288391,-0.0123596,-0.00595093,0.0784302
1033,0.0160217,0.039978,-0.00732422,0.0193787,-0.0315857,-0.0146484,0.0622559,-0.00839233,0.0257874
1033,0.0267029,0.0663757,0.0273132,0.00869751,0.00762939,0.0392151,0.0334167,-0.0372314,0.0205994
1033,0.0497437,0.0415039,0.010376,0.00244141,0.0349426,0.0154114,0.0341797,-0.0265503,0.0189209
1033,0.0622559,-0.0158691,0.0393677,0.0364685,0.0480652,0.0221252,0.0462341,-0.0178528,-0.00305176
1034,0.0799561,-0.0624084,-0.0102234,0.0201416,0.0265503,0.0297546,0.0109863,-0.0178528,-0.0575256
1034,0.0102234,-0.141296,-0.00793457,0.0248718,0.0753784,-0.000610352,-0.0285339,0.0318909,-0.0289917
1034,-0.0482178,-0.122681,0.00366211,0.00747681,0.0491333,-0.00152588,-0.0209045,0.032196,-0.0578308
1034,-0.065918,-0.132141,0.00518799,-0.00518799,0.0323486,-0.00152588,-0.00595093,0.0697327,-0.040741
1034,-0.00320435,-0.133667,-0.00534058,0.00778198,0.0411987,-0.00183105,0.00564575,0.0657654,-0.0132751
1034,0.039978,0.0395203,0.0215149,0.0222778,0.0180054,-0.00183105,0.0187683,-0.0112915,-0.00961304
