Frame,GLUT_MED,RF,VL,BF,TA,SOL,GAS_MED,GAS_LAT,GLUT_MAX
342,0.020752,0.00579834,0.0257874,0.0822449,-0.0672913,0.00747681,-0.0238037,-0.0187683,-0.00427246
342,-0.0108337,-0.0012207,0.0465393,0.057373,-0.10849,-0.000457764,-0.0358582,0.0360107,0.0137329
342,0.00335693,0.00823975,0.0247192,0.0308228,-0.0694275,-0.00671387,-0.0247192,-0.0088501,0.00350952
342,0.00396729,0.0183105,0.0398254,0.0288391,-0.0648499,-0.0111389,0.000915527,-0.00427246,0.0354004
342,0.0114441,0.0222778,0.038147,0.0848389,-0.00747681,0.00900269,-0.00717163,-0.00350952,0.0227356
342,0.0088501,0.0143433,0.0782776,0.0408936,-0.0726318,0.000762939,-0.00305176,-0.000305176,0.0178528
342,0.0238037,0.0202942,0.0759888,0.0108337,-0.106659,0.0297546,-0.00747681,0.0151062,0.0485229
342,0.0152588,-0.00396729,0.0801086,0.038147,-0.11734,-0.0169373,-0.0283813,-0.00106812,0.0363159
342,-0.00823975,0.00320435,0.0741577,0.0245667,-0.0863647,0.00396729,-0.00244141,0.0216675,0.0259399
342,-0.00213623,-0.00686646,0.042572,0.0257874,-0.0546265,0.00259399,0.00549316,-0.00793457,-0.00259399
343,0.0166321,-0.000457764,0.0747681,0.0630188,0.0163269,-0.00106812,-0.0361633,0.0222778,0.0166321
343,0.0146484,-0.0143433,0.0267029,0.108185,-0.0627136,0.00350952,0.0111389,-0.0106812,0.00183105
343,0.0170898,-0.0184631,0.0152588,0.0708008,-0.0587463,0.0131226,0.00411987,0.0109863,0.0350952
343,0.0288391,-0.00671387,0.00411987,0.0796509,0.0657654,0.0151062,0.00259399,0.0279236,0.0149536
343,0.020752,0.00274658,-0.0363159,0.0621033,0.0360107,-0.00289917,0.0038147,-0.00473022,0.0238037
343,0.0169373,0.017395,-0.0514221,0.0747681,0.166626,0.0143433,-0.0309753,0.0305176,0.025177
343,0.0062561,0.00396729,-0.0160217,0.0784302,0.0689697,-0.0128174,-0.0166321,0.00671387,0.0123596
343,0.00610352,0.0115967,0.0219727,0.0686646,0.0012207,0.0012207,-0.0358582,0.0164795,0.0163269
343,0.0209045,-0.00564575,0.0413513,0.0523376,-0.139465,-0.0038147,0.0221252,-0.00747681,0.0106812
343,0.0187683,0.0154114,0.0576782,0.0238037,-0.267181,0.000305176,0.0201416,0.0204468,0.042572
344,0.00991821,0.0154114,0.0640869,0.0535583,-0.11734,-0.0262451,0.00717163,0.0393677,0.0140381
344,-0.00183105,0.00839233,0.0550842,0.0656128,0.155792,0.0161743,0.0210571,0.0276184,0.0578308
344,0.0152588,0.0160217,0.0320435,0.0933838,0.296936,-0.000915527,0.0457764,0.0273132,0.0311279
344,-0.00320435,0.0296021,0.0106812,0.0840759,0.337067,0.010376,0.0378418,0.0305176,0.0520325
344,0.0340271,0.00869751,0.0038147,0.0808716,0.339661,0.00411987,0.0164795,0.00808716,0.0437927
344,-0.019989,-0.0167847,0.0396729,0.0654602,0.226746,-0.00915527,0.000457764,0.0698853,0.0376892
344,-0.0332642,0.0119019,0.0306702,0.0672913,0.175476,-0.0210571,-0.0350952,0.0608826,0.0196838
344,-0.0318909,-0.00411987,0.0260925,0.0558472,-0.0521851,-0.00640869,-0.0418091,0.0169373,0.0193787
344,-0.0248718,0.0100708,0.0285339,0.0497437,-0.132294,0.0144958,-0.0230408,0.0216675,0.0437927
344,0.0434875,0.0109863,0.0163269,0.0772095,-0.00411987,0.0254822,0.00274658,-0.00808716,0.0250244
345,0.0694275,0.0315857,0.0202942,0.0628662,-0.0619507,0.0205994,0.0256348,0.0141907,0.0582886
345,0.0204468,0.00244141,0.0128174,0.0671387,-0.0538635,0.0233459,0.0706482,-0.0216675,0.0305176
345,0.0309753,0.0215149,0.012207,0.0219727,-0.0215149,0.0259399,0.0434875,0.00289917,0.0723267
345,0.0248718,-0.010376,-0.0485229,0.0416565,0.0930786,0.00976562,0.0268555,0.0178528,0.0326538
345,0.0161743,-0.0012207,-0.0749207,0.0613403,0.131989,0.0242615,0.0254822,0.00137329,0.0358582
345,0.0328064,0.0012207,-0.108337,0.0157166,0.0601196,0.0202942,0.0189209,0.0123596,0.0250244
345,0.0360107,0.0297546,-0.09552,-0.030365,0.00656128,-0.00732422,0.0132751,-0.00335693,0.017395
345,0.0473022,0.0300598,-0.0115967,-0.0723267,-0.0640869,0.0111389,0.0154114,0.00213623,-0.00473022
345,-0.00976562,0.0154114,0.0354004,-0.0587463,-0.184784,-0.01297,0.0569153,-0.0473022,-0.0166321
345,0.00259399,0.0050354,0.0621033,-0.0523376,-0.162201,-0.00732422,0.0340271,0.010376,0.0196838
346,0.0119019,-0.000305176,0.0709534,-0.0682068,-0.144501,-0.00488281,0.0575256,-0.0175476,-0.0123596
346,-0.0160217,-0.000305176,0.0520325,-0.0654602,-0.0582886,-0.00289917,0.0267029,0.0526428,0.000762939
346,0.0389099,-0.019989,0.0195312,-0.0732422,0.157776,-0.00350952,0.00442505,0.0590515,-0.0419617
346,0.0517273,0.0190735,0.0801086,-0.128174,0.131531,0.0169373,-0.0141907,0.0212097,-0.012207
346,0.0895691,0.0288391,0.12146,-0.152588,0.121307,0.000762939,-0.0239563,0.0187683,-0.0241089
346,0.149841,0.0384521,0.126343,-0.197906,0.0515747,0.0299072,0.0160217,-0.027771,0.0160217
346,0.160675,0.0209045,0.083313,-0.185242,0.00579834,0.0291443,0.0212097,0.00228882,-0.0253296
346,0.116577,0.0317383,0.0752258,-0.17334,-0.032196,0.0241089,0.00823975,0.0337219,-0.00640869
346,0.0935364,0.0209045,-0.0323486,-0.149994,-0.0291443,0.0326538,0.00198364,0.0508118,-0.0283813
346,0.0602722,0.0218201,-0.075531,-0.137177,-0.0369263,0.00701904,0.00808716,0.0450134,-0.0247192
347,0.0715637,0.0302124,-0.101929,-0.144958,-0.015564,0.0292969,-0.00610352,0.0257874,-0.00991821
347,0.012207,0.0215149,-0.169373,-0.0680542,0.0331116,-0.0120544,-0.00823975,0.0115967,-0.0112915
347,0.00518799,0.0418091,-0.187836,-0.0480652,0.0672913,0.0102234,-0.0265503,0.0250244,-0.0115967
347,-0.0268555,0.0109863,-0.187988,0.0154114,0.0804138,0.00488281,-0.00595093,-0.01297,-0.0469971
347,-0.04776,0.00976562,-0.138092,-0.0311279,0.0279236,0.0227356,-0.00534058,0.0256348,0.015564
347,-0.0164795,0.00900269,-0.13504,-0.0463867,-0.0585938,0.00305176,-0.00335693,-0.0616455,-0.0100708
347,0.03479,0.0590515,-0.0978088,0.00686646,-0.0950623,0.00564575,-0.0140381,-0.0224304,0.0119019
347,0.00518799,0.0387573,-0.0491333,0.0201416,-0.0125122,0.0119019,-0.0131226,0.0117493,-0.0112915
347,0.00946045,0.0299072,-0.0462341,0.0590515,-0.151978,0.0138855,-0.0184631,0.00274658,0.0456238
347,0.0192261,0.0405884,-0.0524902,0.057373,-0.228119,-0.00656128,-0.0280762,-0.00427246,0.0167847
348,-0.0117493,0.0187683,-0.0471497,0.0535583,-0.0804138,0.0126648,-0.0302124,0.0115967,-0.000610352
348,-0.0012207,0.015564,-0.0776672,0.0172424,0.039978,0.0337219,-0.0393677,0.0140381,0.0166321
348,-0.0311279,0.00930786,-0.0547791,0.0102234,-0.00915527,0.00991821,0.0234985,0.018158,0.00656128
348,0.0137329,0.0135803,-0.0978088,-0.0210571,0.0549316,0.00366211,0.00198364,0.00686646,-0.00656128
348,0.0164795,0.00900269,-0.0888062,-0.038147,0.0784302,0.00335693,-0.00656128,0.00442505,-0.00488281
348,-0.00488281,0.00656128,-0.0770569,-0.0358582,0.101929,-0.0204468,-0.0286865,0.0418091,-0.0111389
348,-0.0543213,-0.00732422,-0.0372314,-0.0550842,0.0508118,0.00411987,-0.0102234,0.0253296,-0.00366211
348,-0.0527954,-0.0163269,-0.0379944,-0.0582886,0.010376,0.00900269,0.00305176,0.00350952,-0.0387573
348,-0.0822449,-0.0428772,-0.0656128,-0.0372314,-0.0457764,0.0131226,0.0183105,0.025177,0.00854492
348,-0.0820923,-0.0259399,-0.0747681,-0.0323486,0.0422668,0.0115967,0.0177002,0.01297,-0.0158691
349,-0.0828552,0.042572,-0.0512695,-0.0114441,0.0601196,0.00595093,0.0270081,0.015564,0.017395
349,-0.0828552,0.0305176,-0.0921631,-0.0328064,0.0450134,0.0382996,0.0343323,0.0332642,-0.0227356
349,-0.0785828,0.0254822,-0.0817871,-0.0100708,0.015564,0.0302124,0.0538635,0.0291443,-0.00106812
349,-0.0613403,0.0323486,-0.050354,-0.00595093,-0.00900269,0.03479,0.0358582,0.0393677,0.0109863
349,-0.0247192,0.00228882,-0.0332642,0.0550842,-0.0318909,0.0138855,0.0228882,0.0105286,0.0236511
349,-0.0158691,0.00839233,-0.00274658,0.0308228,-0.0088501,0.0312805,0.0326538,0.0328064,0.0111389
349,-0.0559998,-0.00213623,-0.0260925,0.0244141,-0.00808716,-0.00106812,0.0428772,-0.00366211,-0.0192261
349,-0.0210571,0.019989,0.00106812,0.025177,-0.0546265,0.0106812,-0.00396729,-0.00976562,0.0224304
349,0.00213623,0.0105286,-0.00778198,0.0267029,-0.0657654,-0.00518799,0.0253296,0.0137329,-0.0138855
349,-0.0105286,0.00640869,0.0140381,0.0527954,-0.0640869,0.0102234,0.0340271,0.00534058,0.0128174
350,-0.017395,0.00442505,0.00518799,0.0723267,-0.0593567,-0.00213623,0.0134277,0.0387573,-0.00167847
350,-0.0421143,-0.00701904,0.0274658,0.0663757,0.0730896,0.00259399,0.0245667,0.0135803,0.0178528
350,-0.0386047,-0.00732422,-0.01297,0.0440979,0.122223,0.00366211,0.0115967,0.0160217,-0.0120544
350,-0.0495911,0.00473022,0.00747681,0.0643921,0.0764465,-0.0215149,0.00946045,0.0291443,-0.0126648
350,-0.027771,0.017395,-0.00793457,0.0761414,0.091095,-0.00244141,-0.0167847,0.0375366,-0.0276184
350,-0.0485229,-0.0106812,0.0341797,0.088501,0.0709534,0.0112915,-0.00915527,0.025177,-0.0126648
350,-0.0387573,-0.00289917,0.072937,0.0758362,0.0372314,0.00335693,0.0144958,0.0344849,0.0268555
350,0.00701904,0.00686646,0.127563,0.0779724,0.00534058,0.00518799,0.00411987,-0.000152588,0.00869751
350,0.000762939,0.0161743,0.108643,0.0434875,-0.00305176,0.0123596,-0.00305176,0.0328064,0.0239563
350,-0.0239563,-0.00259399,0.0863647,0.0497437,-0.0334167,0.00640869,0.00808716,0.00442505,0.00640869
351,-0.0244141,0.00961304,0.0796509,0.0366211,-0.0495911,0.00640869,-0.0012207,0.00762939,0.0799561
351,-0.00946045,-0.00671387,0.0430298,0.0462341,-0.0177002,0.00259399,0.0100708,0.00671387,0.0364685
351,-0.00106812,-0.00289917,0.0331116,0.000762939,-0.0088501,0.00579834,0.00106812,0.00808716,0.0532532
351,0.0517273,-0.0135803,-0.0189209,-0.0242615,0.00335693,-0.00167847,-0.0158691,0.0108337,0.0485229
351,0.0346375,-0.0231934,-0.0398254,-0.0292969,-0.0360107,-0.0192261,0.00274658,0.0038147,0.0427246
351,-0.00686646,-0.0050354,-0.0222778,-0.0375366,-0.0492859,-0.00686646,-0.0125122,0.0146484,0.0398254
351,-0.038147,0.0117493,-0.0138855,-0.0135803,-0.00411987,-0.0158691,-0.000457764,0.0228882,0.0141907
351,-0.00640869,0.0119019,-0.0297546,-0.00900269,-0.0132751,-0.00488281,-0.0210571,0.0547791,0.0334167
351,-0.0270081,-0.0120544,-0.0283813,0.012207,-0.0660706,0.00259399,0.0157166,0.0177002,0.00137329
351,-0.0401306,0.0106812,-0.0143433,0.0160217,-0.037384,0.0213623,0.0128174,0.0331116,0.0372314
352,-0.0328064,0.0088501,-0.0300598,0.0532532,-0.0309753,0.0193787,0.00366211,-0.00793457,0.0349426
352,-0.0335693,0.00579834,-0.0434875,0.0376892,-0.0827026,0.0230408,0.0128174,-0.000915527,0.0428772
352,-0.0260925,-0.00701904,-0.0749207,0.0535583,-0.0471497,0.01297,0.0242615,-0.032959,0.0177002
352,-0.0328064,0.0158691,-0.0439453,0.0578308,-0.0382996,0.0038147,0.0114441,-0.0279236,0.0209045
352,-0.0604248,-0.0158691,-0.0509644,0.0672913,-0.0135803,0.0123596,0.0177002,-0.0141907,0.0259399
352,-0.00411987,-0.0128174,-0.0430298,0.0668335,-0.0164795,-0.0158691,0.0408936,-0.0050354,0.00534058
352,0.071106,-0.0138855,-0.0701904,0.0611877,0.015564,-0.00488281,0.0178528,0.0227356,0.0344849
352,0.12207,-0.0170898,-0.0340271,0.0538635,0.0297546,-0.0216675,0.0224304,0.0419617,0.0361633
352,0.11734,-0.0100708,-0.0598145,0.0457764,0.0143433,0.0222778,0.00610352,0.0772095,0.0361633
352,0.0300598,-0.0276184,-0.0630188,0.0193787,0.0132751,0.00930786,0.025177,0.0897217,0.0227356
353,0.000762939,-0.0183105,-0.0382996,-0.00961304,0.0119019,0.0364685,-0.0132751,0.075531,0.0320435
353,0.0062561,-0.0358582,-0.0418091,-0.0286865,-0.00640869,0.0285339,-0.0299072,0.00564575,0.0119019
353,-0.0318909,-0.0186157,-0.0123596,-0.0253296,-0.0163269,0.01297,-0.00747681,-0.0286865,0.0361633
353,0.0163269,0.0164795,-0.0241089,-0.030365,0.0212097,0.0178528,-0.0146484,0.000610352,0.0192261
353,-0.0131226,0.0285339,0.0218201,-0.0315857,0.0308228,0.020752,0.0376892,-0.0193787,0.00762939
353,-0.00167847,0.00411987,0.0617981,-0.0305176,0.0440979,0.032959,0.0532532,-0.00717163,0.0219727
353,0.0212097,-0.0238037,0.0923157,0.032959,0.0233459,0.00411987,0.0610352,-0.012207,0.0245667
353,-0.00671387,-0.0253296,0.0924683,-0.0273132,0.00488281,0.00640869,0.0495911,0.0212097,0.0419617
353,-0.0163269,-0.0119019,0.134888,-0.00915527,0.0038147,-0.0482178,0.0494385,0.0111389,-0.00900269
353,-0.0534058,0.00793457,0.162811,-0.0271606,-0.030365,-0.0398254,0.0219727,0.0192261,0.0288391
354,-0.0308228,-0.0100708,0.105591,-0.0137329,0.00259399,-0.0276184,0.0402832,0.0311279,0.00305176
354,0.00473022,-0.0108337,0.118103,-0.043335,0.00595093,-0.0289917,0.045166,0.0253296,0.0289917
354,0.0386047,-0.012207,0.120697,-0.0187683,0.0437927,-0.00106812,0.0537109,-0.0254822,0.00305176
354,0.035553,0.0331116,0.147705,-0.0311279,0.0566101,0.0234985,0.0247192,-0.0460815,0.0177002
354,0.0172424,0.0283813,0.153046,0.00213623,0.068512,0.0209045,0.00305176,-0.0259399,0.000915527
354,0.0189209,0.00289917,0.129395,-0.0177002,0.059967,-0.0273132,-0.00457764,-0.101624,0.0483704
354,0.0326538,0.0164795,0.0987244,-0.0294495,0.0282288,-0.00427246,-0.0302124,-0.0561523,0.037384
354,0.0236511,-0.00152588,0.0912476,-0.000762939,0.0332642,-0.0183105,0.00518799,-0.0640869,0.0187683
354,0.0361633,-0.00869751,0.0801086,-0.0190735,-0.01297,-0.0395203,0.0462341,-0.0375366,0.0521851
354,0.0410461,-0.0273132,0.0775146,-0.00839233,-0.000457764,-0.0224304,0.0512695,-0.0665283,0.0267029
355,0.0738525,-0.0164795,0.0811768,-0.018158,-0.00396729,0.000305176,0.00396729,-0.0553894,0.052948
355,0.0175476,-0.0170898,0.087738,-0.0175476,0.0410461,0.00152588,0.0177002,-0.065918,0.0343323
355,-0.0175476,0.065918,0.0830078,-0.0180054,0.0302124,0.00411987,0.035553,-0.0352478,0.0384521
355,-0.0338745,0.0341797,0.0761414,-0.015564,0.0318909,0.0263977,0.0125122,0.00335693,0.0233459
355,-0.0415039,0.0366211,0.0622559,0.00656128,0.0358582,0.0479126,-0.00244141,0.0280762,0.0361633
355,-0.0233459,0.0270081,0.0224304,-0.0192261,0.0415039,0.0276184,-0.0283813,0.0463867,0.0323486
355,-0.0190735,0.00488281,-0.00930786,-0.0360107,0.0306702,-0.0132751,0.0160217,0.0402832,0.0111389
355,-0.0106812,0.0447083,-0.0149536,-0.0369263,0.0196838,0.00732422,-0.0297546,0.0579834,0.0259399
355,-0.0128174,0.00823975,-0.00900269,-0.0364685,0.0119019,0.00473022,0.00930786,0.00106812,-0.0123596
355,-0.0151062,0.0349426,-0.0401306,-0.0463867,0.0128174,-0.0088501,-0.00869751,0.0585938,0.00976562
356,-0.00396729,0.0227356,-0.0344849,-0.0151062,-0.0248718,-0.00915527,0.0193787,0.0325012,-0.0198364
356,-0.00366211,0.0346375,-0.00457764,-0.0349426,-0.0692749,0.0189209,0.0238037,0.0540161,0.030365
356,-0.00152588,-0.0120544,0.00305176,-0.0323486,-0.0309753,0.0198364,0.0259399,0.0279236,0.00289917
356,-0.000152588,0.00305176,0.0125122,-0.0297546,0.0157166,0.0088501,0.0128174,0.0410461,0.0152588
356,0.00335693,0.000457764,-0.00595093,-0.0468445,0.0422668,-0.00549316,0.00976562,0.0125122,0.0218201
356,0.000762939,-0.00305176,0.0149536,-0.0392151,0.0114441,-0.00991821,0.00259399,0.0550842,0.0119019
356,0.0637817,-0.00473022,0.00274658,-0.00717163,0.0137329,0.00915527,-0.0527954,0.0497437,0.0350952
356,0.0454712,-0.0233459,0.00610352,-0.0236511,0.00610352,0.0193787,-0.0538635,0.0312805,0.00579834
356,0.0552368,-0.00839233,-0.0119019,-0.0309753,0.00595093,0.0520325,-0.010376,0.0233459,0.00793457
356,0.00793457,0.000762939,-0.0169373,0.00106812,0.010376,0.0234985,0.0346375,-0.0143433,-0.0088501
357,-0.0236511,0.0163269,-0.0167847,-0.0177002,-0.0126648,0.0218201,0.0106812,-0.0648499,-0.0254822
357,-0.0282288,0.0212097,-0.0169373,-0.00640869,0.00976562,0.019989,0.0483704,-0.0445557,0.0100708
357,-0.0112915,0.0326538,-0.000152588,-0.0370789,-0.0038147,0.010376,0.0405884,0.0212097,0.000152588
357,0.0265503,0.0180054,0.0401306,-0.0376892,0.0289917,0.00411987,0.010376,-0.0244141,-0.0480652
357,0.0523376,0.0300598,0.0904846,-0.0492859,0.0494385,0.00305176,0.00396729,-0.00213623,0.0108337
357,0.0724792,0.0286865,0.0892639,-0.0296021,0.042572,-0.0502014,-0.0297546,0.0219727,-0.0302124
357,0.050354,0.0265503,0.0730896,-0.0534058,0.0318909,-0.04776,-0.0817871,0.0814819,-0.0154114
357,0.0382996,0.0088501,0.0587463,-0.0273132,0.0198364,-0.0567627,-0.0473022,0.0730896,-0.027771
357,-0.0164795,0.00488281,0.0473022,-0.0311279,0.0149536,0.0265503,-0.0123596,0.0559998,-0.0311279
357,-0.0230408,0.00961304,0.00152588,-0.0149536,0.0212097,0.0616455,0.00442505,0.0654602,-0.0088501
358,-0.0230408,0.0212097,-0.0247192,-0.00579834,0.0253296,0.0622559,0.037384,0.0408936,-0.000152588
358,0.0245667,0.0216675,-0.0958252,-0.0114441,0.0436401,0.0732422,0.0396729,0.0291443,0.00198364
358,0.0265503,0.00198364,-0.107422,-0.00320435,-0.0088501,0.0245667,0.0532532,-0.000762939,-0.00289917
358,0.0375366,0.0242615,-0.142059,-0.0344849,0.00396729,-0.00183105,-0.0318909,-0.00808716,0.00259399
358,-0.0131226,-0.030365,-0.149078,-0.014801,-0.00137329,-0.0222778,-0.025177,0.00350952,-0.0308228
358,-0.00167847,-0.0128174,-0.140076,-0.0221252,0.00961304,0.00778198,-0.0196838,0.00976562,0.00701904
358,-0.00640869,-0.0265503,-0.155182,0.00747681,0.01297,-0.000457764,-0.00732422,0.0120544,-0.0364685
358,-0.0325012,0.012207,-0.123444,-0.014801,0.0038147,0.0105286,-0.0050354,0.0314331,-0.00732422
358,-0.0375366,0.00259399,-0.118561,0.0050354,0.0126648,0.040741,0.0119019,0.0186157,-0.0149536
358,-0.0271606,0.0137329,-0.0888062,0.00274658,0.0270081,0.0495911,0.010376,0.0250244,-0.0119019
359,0.000457764,-0.000762939,-0.0506592,0.000152588,0.0109863,0.0410461,-0.00274658,0.0195312,0.00656128
359,-0.0244141,-0.00274658,-0.032196,0.025177,0.015564,0.00930786,0.039978,0.0515747,0.000610352
359,0.0210571,-0.0645447,-0.0628662,0.00762939,-0.0038147,0.018158,-0.00717163,0.0444031,-0.0105286
359,0.0360107,-0.0393677,-0.0389099,0.00946045,-0.027771,-0.00259399,0.0395203,0.0326538,0.0201416
359,0.0465393,-0.0338745,-0.0543213,0.00564575,0.00152588,0.00808716,0.032196,0.0401306,0.0233459
359,0.0671387,-0.0357056,-0.0675964,0.0111389,0.0180054,0.00305176,0.0109863,0.0149536,0.00366211
359,0.0538635,0.00976562,-0.0692749,0.00228882,0.0128174,0.00427246,0.00991821,0.0453186,0.0088501
359,0.045929,0.00717163,-0.0502014,0.00534058,-0.00671387,0.00457764,0.0354004,-0.00564575,-0.0212097
359,0.00961304,-0.0105286,-0.0489807,0.0131226,-0.00335693,0.0123596,0.0222778,0.00488281,0.0375366
359,0.0283813,-0.00778198,-0.0761414,0.00686646,-0.00518799,0.00823975,-0.017395,0.00488281,0.0366211
360,0.0143433,0.0209045,-0.0338745,-0.000305176,-0.0115967,0.0213623,-0.0289917,-0.00213623,0.00411987
360,0.0224304,0.0274658,-0.0488281,-0.0062561,0.00747681,0.00610352,0.000762939,-0.072937,0.00320435
360,-0.000610352,0.0442505,-0.00991821,-0.00564575,-0.0296021,0.0038147,0.000305176,-0.0866699,0.00488281
360,-0.0105286,0.0250244,0.00534058,-0.00244141,-0.00656128,0.00595093,-0.0384521,-0.0486755,-0.0169373
360,-0.0167847,0.0209045,0.0183105,0.0105286,-0.00259399,0.0204468,-0.0172424,-0.0169373,-0.00564575
360,-0.0299072,0.018158,0.0280762,0.00442505,0.017395,0.00335693,0.0386047,0.0157166,-0.0184631
360,-0.00747681,0.0308228,0.0454712,0.0233459,0.000305176,0.00732422,0.0538635,0.0149536,0.0230408
360,0.0209045,0.0543213,0.037384,0.0228882,0.00198364,0.000152588,0.0196838,0.00747681,-0.0198364
360,0.0137329,0.0610352,0.0532532,0.0410461,0.000762939,0.00213623,0.0294495,0.0254822,-0.00610352
360,0.00717163,0.0408936,0.0486755,0.0334167,0.00747681,0.01297,0.0137329,0.0297546,0.0253296
361,-0.019989,0.0305176,0.0538635,0.045929,0.0125122,-0.0140381,0.0106812,-0.01297,-0.0137329
361,0.000305176,0.0198364,0.0495911,0.0245667,0.0128174,-0.0241089,0.00396729,0.01297,0.0358582
361,-0.00595093,0.027771,0.0549316,0.0338745,0.00549316,-0.0434875,0.0308228,0.0135803,0.00686646
361,-0.0238037,0.0367737,0.0648499,0.0267029,0.00701904,-0.0167847,0.0158691,0.0862122,0.017395
361,0.0137329,0.0265503,0.0637817,0.0448608,-0.0050354,0.0196838,-0.00335693,0.0592041,-0.00579834
361,0.0184631,0.0248718,0.0700378,0.0570679,0.0141907,0.00930786,0.0201416,0.0959778,0.0338745
361,0.0236511,0.0263977,0.0476074,0.0260925,0.0227356,0.00762939,0.0375366,0.0656128,-0.0050354
361,-0.0184631,0.0230408,0.0576782,0.0421143,-0.0038147,0.00564575,0,0.0691223,0.00656128
361,-0.0463867,0.0328064,0.0364685,0.0547791,0.018158,0.0309753,-0.0416565,0.0331116,0.00762939
361,-0.0732422,0.0245667,0.0233459,0.0337219,-0.000305176,0.0161743,-0.0151062,-0.0138855,0.0138855
362,-0.0611877,0.038147,0.0317383,0.0260925,0.018158,0.0466919,0.0137329,0.0141907,0.0297546
362,-0.0216675,0.0276184,0.0169373,0.0366211,0.0137329,0.0193787,0.0787354,-0.0480652,-0.0190735
362,0.0062561,0.03479,0.0340271,0.0259399,0.00640869,0.0305176,0.0834656,-0.0192261,0.0335693
362,0.0553894,0.0300598,0.0256348,0.0218201,-0.00259399,0.0143433,0.000457764,-0.0296021,-0.00396729
362,0.0488281,0.037384,0.0456238,0.0497437,-0.00366211,0.0271606,-0.0144958,-0.0157166,0.0311279
362,0.0151062,0.0389099,0.0335693,0.0389099,0.00427246,0.0117493,0.00656128,-0.00244141,0.0137329
362,-0.0108337,0.0389099,0.0660706,0.0523376,-0.00366211,-0.00427246,0.0302124,0.0210571,0.0180054
362,-0.0114441,0.0357056,0.0462341,0.0267029,-0.00457764,0.00411987,-0.0260925,0.040741,0.0111389
362,-0.0320435,0.0062561,0.0567627,0.0436401,-0.0157166,-0.0212097,0.014801,0.00747681,-0.0180054
362,-0.0109863,0.000762939,0.0227356,0.0367737,-0.0300598,-0.0132751,0.0183105,0.0518799,-0.00152588
363,0.00961304,0.0038147,0.0495911,0.0366211,-0.0170898,0.00244141,-0.00274658,0.0534058,-0.0160217
363,-0.00930786,0.00213623,0.057373,0.0340271,-0.00823975,-0.00350952,-0.0408936,0.0628662,0.0105286
363,0.0276184,0.0210571,0.0567627,0.012207,-0.000762939,0.0177002,0.0260925,0.0250244,-0.00274658
363,0.0286865,0.0578308,0.0862122,0.0325012,-0.0202942,0.0299072,0.0392151,-0.00747681,0.017395
363,0.0366211,0.0218201,0.0790405,0.027771,-0.0117493,0.0314331,0.063324,-0.0582886,-0.000610352
363,0.0244141,0.0149536,0.0775146,0.0222778,0.00488281,0.0250244,0.0788879,-0.0105286,0.020752
363,-0.000762939,-0.00564575,0.0698853,0.0177002,0.00946045,0.022583,0.0332642,-0.00823975,0.00976562
363,0.00823975,0.00747681,0.0971985,0.0135803,-0.00915527,-0.025177,0.0125122,0.0164795,0.00549316
363,0.00244141,-0.00854492,0.0917053,0.0100708,0.0294495,-0.0257874,-0.0379944,0.0109863,0.0186157
363,0.0172424,-0.00350952,0.0820923,0.0157166,-0.0195312,-0.038147,-0.0367737,-0.0126648,-0.0175476
364,0.0239563,0.0201416,0.0538635,0.0143433,-0.0134277,0.00732422,-0.0288391,0.027771,0.00701904
364,-0.0062561,-0.0128174,0.0262451,0.0309753,0.0088501,0.00854492,0.0318909,0.0405884,-0.0224304
364,0.0140381,0.00961304,0.00152588,-0.00900269,0.010376,0.00701904,0.0465393,0.0732422,0.0276184
364,0.0694275,0.0379944,0.0227356,0.0170898,-0.00366211,0.00976562,0.0236511,0.0299072,-0.0135803
364,0.0253296,0.00534058,0.0328064,0.00320435,0,0.00869751,0.0175476,0.0352478,0.0473022
364,0.0112915,-0.00152588,-0.00717163,0.0311279,-0.00717163,-0.0311279,0.0196838,-0.0161743,0.00473022
364,0.0143433,-0.00869751,0.000457764,0.01297,-0.0119019,-0.0137329,0.0437927,-0.0482178,0.00701904
364,0.0558472,-0.00320435,-0.0117493,-0.0108337,0.01297,0.0123596,0.080719,-0.0431824,-0.0012207
364,0.00213623,-0.0125122,0.0050354,0.00747681,0.0117493,-0.0062561,0.0149536,-0.109406,0.0201416
364,0.014801,-0.00732422,-0.0038147,-0.0274658,0.0160217,0.00701904,-0.0120544,-0.0460815,0.000762939
365,0.00427246,0.0138855,-0.0115967,0.0154114,0.00457764,-0.0234985,-0.010376,-0.0109863,-0.000305176
365,0.0262451,0.0102234,-0.0241089,0.0038147,0.0320435,-0.0102234,-0.0483704,0.00991821,0.0325012
365,0.0137329,0.00778198,-0.00335693,0.00671387,0.0125122,-0.00747681,-0.0309753,-0.0012207,0.00137329
365,0.0491333,0.0125122,-0.0117493,0.0128174,0.0338745,-0.0106812,-0.0354004,-0.0367737,-0.00167847
365,0.0119019,-0.0111389,-0.00335693,0.0204468,0.00244141,-0.00259399,-0.00244141,-0.0247192,-0.000305176
365,0.0135803,0.0106812,-0.00534058,0.0157166,0.0123596,0.017395,0.0289917,-0.00320435,0.0146484
365,0.00213623,0.0289917,0.0152588,0.0012207,-0.00366211,0.0340271,0.0349426,-0.00656128,-0.0233459
365,0.0242615,0.0274658,0.0238037,0.00656128,0.030365,0.0415039,0.00213623,0.0613403,-0.00518799
365,0.0210571,0.00991821,-0.00518799,0.00976562,0.03479,0.0167847,0.017395,0.0411987,-0.0120544
365,0.0337219,0.00976562,-0.0160217,-0.00167847,0.0111389,0.0379944,0.00106812,0.0617981,0.00930786
366,0.0120544,-0.00823975,-0.000457764,0.0126648,0.00274658,0.0256348,0.0233459,0.0105286,-0.0222778
366,0.0210571,-0.0108337,-0.00534058,0.000762939,-0.00869751,0.0485229,0.0149536,-0.00106812,0.0276184
366,0.0193787,-0.0242615,0.0271606,0.0125122,0.00366211,0.0395203,0.0395203,-0.019989,0.00991821
366,-0.0170898,0.000762939,0.0244141,0.00717163,0.00518799,0.0274658,0.0448608,0.0161743,0.0184631
366,0.0138855,0.00274658,0.035553,0.0444031,0.00869751,0.0126648,0.0202942,0.00488281,-0.0219727
366,0.0187683,-0.00534058,0.0297546,0.0352478,0.00595093,0.0135803,0.0135803,0.0454712,0.027771
366,0.00411987,-0.0106812,-0.0119019,0.0257874,0.0190735,-0.00274658,-0.0114441,0.0387573,-0.00671387
366,-0.0210571,-0.0012207,0.0222778,0.0108337,-0.00106812,-0.00350952,-0.0050354,0.0273132,0.00411987
366,-0.0117493,-0.0241089,-0.0149536,-0.00213623,0.0144958,-0.00747681,0.0227356,0.0126648,0.00976562
366,-0.0158691,-0.0189209,-0.0163269,0.0105286,-0.000457764,-0.0201416,0.0704956,0.0088501,-0.000305176
367,0.0143433,-0.00244141,-0.0198364,0.0294495,-0.00808716,0.0172424,0.0538635,0.0228882,0.0166321
367,-0.00305176,-0.0227356,-0.0532532,0.0198364,0.00564575,0.0367737,0.0860596,0.00183105,-0.00732422
367,0.0224304,0.00946045,-0.063324,-0.018158,-0.000152588,0.0616455,0.0456238,0.00976562,0.0038147
367,0.0120544,0.0111389,-0.035553,0.00671387,0.0038147,0.0413513,0.0325012,-0.0382996,0.0038147
367,-0.025177,0.0190735,-0.00488281,-0.00854492,0.0233459,0.0502014,-0.0387573,0.0234985,-0.00427246
367,0.0108337,-0.00350952,0.0088501,0.0268555,0.0244141,0.00946045,-0.0189209,0.0257874,-0.00228882
367,0.0408936,0.00152588,0.00656128,0.000610352,0.0146484,-0.0132751,0.00564575,0.0389099,0.0289917
367,0.0123596,-0.0151062,0.00335693,-0.00335693,-0.0125122,0.00274658,-0.0160217,0.0306702,-0.000610352
367,0.0131226,0.00167847,-0.017395,-0.00793457,0.00137329,-0.00137329,-0.0369263,0.037384,-0.00564575
367,0.0253296,-0.00473022,-0.0305176,-0.00473022,0.0134277,0.00732422,-0.0280762,0.0520325,-0.0213623
368,-0.00961304,-0.00900269,-0.00656128,0.0210571,0.0413513,-0.00457764,-0.0189209,0.0379944,0.039978
368,0.0166321,-0.000152588,-0.0105286,0.00793457,0.0326538,0.0209045,0.0149536,0.0248718,0.00213623
368,0.00167847,-0.0143433,-0.0187683,0.00839233,0.00289917,0.00610352,0.0161743,-0.00152588,0.0183105
368,0.0257874,-0.00534058,-0.000305176,0.022583,0.0245667,0.00152588,0.0276184,0.027771,-0.0012207
368,0.0286865,-0.00244141,0.00732422,0.0227356,0.0120544,0.0106812,0,0.0544739,0.0138855
368,0.0114441,-0.00274658,0.0125122,0.00320435,0.0115967,0.0161743,0.0349426,0.00808716,-0.012207
368,-0.00671387,-0.0050354,0.0343323,0.0242615,0.0166321,0.0012207,0.0314331,0.0154114,0.0260925
368,-0.0109863,0.00167847,0.0160217,0.0279236,0.0344849,-0.00167847,0.0242615,-0.00686646,-0.0141907
368,-0.0187683,0.0123596,0.0369263,0.00762939,0.0137329,0.00396729,0.0532532,0.0114441,0.0604248
368,0.0112915,-0.00350952,0.0357056,0.0195312,0.00564575,-0.00289917,0.065155,-0.0190735,0.010376
369,-0.00793457,0.00640869,0.0415039,0.030365,0.00656128,0.0178528,0.0819397,0.0344849,0.0227356
369,0.0123596,-0.00701904,0.0119019,0.015564,0.0170898,0.0108337,0.0723267,0.0050354,0.00289917
369,0.00640869,0.0114441,-0.00198364,-0.00762939,-0.0105286,-0.010376,0.0325012,0.0236511,0.0460815
369,-0.0259399,0.00442505,0.0062561,-0.00854492,0.0141907,-0.0215149,-0.00198364,-0.00839233,0.0137329
369,-0.0297546,0.0160217,0.0309753,-0.0216675,0.00366211,-0.0187683,0.000305176,0.00564575,0.0585938
369,-0.0213623,-0.00854492,0.0198364,0.0106812,0.0126648,-0.0434875,-0.000305176,-0.0289917,0.00137329
369,0.00701904,0.00854492,0.0227356,0.015564,-0.00534058,-0.0349426,-0.0543213,-0.0283813,0.032196
369,0.0123596,-0.00946045,0.00320435,0.0346375,0.0242615,-0.0282288,-0.0440979,-0.052948,0.019989
369,0.0311279,0.00747681,0.0112915,-0.000152588,0.0210571,0.0120544,-0.0234985,0.017395,0.0482178
369,0.0296021,-0.000610352,0.00473022,0.0286865,0.0390625,0.0265503,-0.00808716,0.00442505,0.000152588
370,-0.01297,0.0346375,0.0219727,0.0131226,0.00610352,0.019989,-0.00244141,0.0402832,0.0314331
370,0.0114441,0.00411987,0.0428772,0.0228882,0.0117493,0.0193787,-0.0112915,0.0344849,0.010376
370,0.0202942,0.0228882,0.00457764,0.0201416,0.0137329,0.0259399,-0.0109863,-0.00167847,0.00762939
370,0.0260925,0.0274658,0.0230408,0.0405884,0.0178528,0.00411987,0.000915527,-0.0418091,-0.010376
370,0.0221252,0.0431824,0.0244141,0.00564575,0.019989,0.0286865,-0.0151062,0.00839233,0.0457764
370,-0.0138855,0.0340271,0.00198364,0.0286865,0.012207,0.0392151,0.00701904,-0.0257874,-0.00610352
370,-0.00167847,0.0346375,0.0088501,0.00839233,0.0247192,0.0259399,-0.00595093,0.0578308,0.0450134
370,0.0151062,0.0511169,0.0187683,0.0178528,0.0137329,-0.000610352,0.04776,0.0846863,0.0138855
370,0.0163269,0.0340271,0.0267029,-0.0175476,-0.0157166,0.0204468,0.0845337,0.132904,0.0265503
370,-0.0088501,0.020752,0.0135803,0.0038147,0.00213623,-0.00427246,0.0544739,0.0787354,-0.00595093
371,-0.0038147,0.0213623,0.0236511,-0.0378418,-0.0088501,0.010376,0.0393677,0.0454712,0.0526428
371,-0.0186157,0.012207,0.0172424,0.0172424,0.00289917,0.00976562,0.0218201,-0.0663757,0.018158
371,0.00213623,0.0119019,0.00534058,0.00671387,-0.0149536,0.00137329,0.00518799,-0.0706482,0.0473022
371,-0.0132751,0.0183105,-0.00106812,0.0128174,-0.00823975,-0.035553,-0.0769043,-0.0621033,0.012207
371,0.0413513,0.0143433,-0.00473022,0.0126648,0.0105286,0.0125122,-0.109558,0.0531006,0.0352478
371,0.0286865,-0.0146484,-0.00732422,0.00747681,0.00656128,0.00488281,-0.0193787,0.0234985,0.000915527
371,0.019989,0.00549316,0.00534058,-0.00976562,-0.00839233,0.00457764,-0.00595093,0.0544739,0.035553
371,0.0218201,0.00808716,0.0166321,0.0128174,0.00411987,-0.0149536,-0.0250244,-0.0195312,0.0204468
371,-0.00701904,0.0248718,-0.0062561,0.000305176,0.00640869,0.0274658,-0.03479,-0.0750732,0.0466919
371,0.0131226,0.00686646,0.00732422,0.012207,0.000915527,0.0117493,-0.0228882,-0.116882,0.00411987
372,0.043335,0.0137329,0.000305176,-0.0271606,-0.00534058,0.0294495,-0.0183105,-0.00976562,0.00686646
372,0.0431824,0.0202942,0.00930786,-0.00259399,0.0244141,-0.00457764,0.0340271,-0.00534058,-0.00686646
372,0.0654602,0.018158,-0.0138855,-0.00350952,0.0114441,-0.00793457,0.0224304,-0.000915527,0.0125122
372,0.0257874,-0.00274658,0.0256348,-0.000915527,-0.00808716,-0.0228882,0.0166321,0.0038147,0.012207
372,0.00137329,0.0280762,0.0552368,-0.000915527,0.0201416,-0.0222778,0.0268555,0.00961304,0.0143433
372,-0.0062561,0.0233459,0.0468445,0.00366211,0.0245667,-0.0178528,0.0163269,0.0296021,0.00473022
372,0.0592041,0.0337219,0.0386047,0.00854492,0.00991821,0.0193787,0.000762939,0.0282288,0.0149536
372,0.045929,0.0163269,0.0395203,0.0038147,-0.00534058,0.0541687,0.0415039,0.0233459,-0.00717163
372,0.0151062,-0.000915527,0.018158,-0.00213623,0.00900269,0.0364685,0.0462341,0.0460815,0.0170898
372,-0.00976562,0.00762939,0.0280762,0.017395,0.00396729,0.00930786,0.0765991,0.0213623,0.0228882
373,0.0256348,0.0062561,-0.00534058,-0.00579834,0.00946045,0.0141907,0.01297,0.0447083,-0.00595093
373,0.00610352,0.00869751,0.01297,0.00183105,0.00640869,0.0125122,-0.0263977,0.0585938,0.0205994
373,0.0216675,0.0112915,-0.000457764,-0.00518799,0.010376,0.0135803,-0.000152588,0.0456238,0.00534058
373,0.0228882,0.0123596,0.0175476,-0.00762939,-0.0180054,-0.0109863,0.00686646,-0.0158691,0.00152588
373,0.0511169,-0.00244141,0.00549316,-0.00442505,0.00595093,0.0109863,-0.00411987,0.00473022,0.00930786
373,0.0247192,-0.00488281,0.0402832,-0.00244141,0.00701904,0.00106812,0.0337219,0.0169373,0.0236511
373,0.0177002,-0.00717163,0.0553894,0.0231934,0.0186157,-0.00350952,0.0210571,0.00427246,-0.00961304
373,0.0317383,-0.0100708,0.0744629,-0.000610352,0.00152588,-0.00762939,0.0222778,0.0160217,-0.0126648
373,0.0344849,0.00549316,0.0474548,0.00366211,-0.00564575,0.000305176,-0.0157166,0.0135803,0.0154114
373,0.00396729,0.00396729,0.0718689,-0.000152588,0.00854492,-0.00228882,0.000152588,0.0312805,0.00411987
374,0.0439453,0.000762939,0.0422668,-0.00534058,0.00946045,-0.00656128,0.0196838,0.0434875,0.00656128
374,0.00854492,0.00823975,0.0306702,-0.0204468,-0.00457764,0.00701904,0.0224304,0.00274658,-0.00640869
374,0.0161743,-0.00213623,0.0088501,-0.0352478,-0.00335693,0.0161743,0.00686646,0.0344849,0.0109863
374,0.010376,-0.0157166,-0.0315857,-0.00534058,0.00976562,0.00183105,0.00473022,-0.0230408,0.00289917
374,0.00564575,0.00305176,-0.0619507,-0.01297,-0.00320435,-0.00457764,-0.00137329,-0.00457764,0.0242615
374,-0.00228882,-0.0119019,-0.0827026,0.000305176,0.00213623,0.00152588,0.00427246,-0.050354,-0.00549316
374,-0.0370789,0.0233459,-0.0656128,-0.0141907,-0.00106812,-0.0224304,-0.00823975,0.00854492,-0.00152588
374,-0.0312805,0.0137329,-0.0494385,-0.00762939,0.00778198,-0.0262451,0.0239563,-0.00183105,-0.0230408
374,-0.0190735,0.00930786,-0.00564575,-0.0102234,-0.0157166,-0.0135803,0.0523376,0.0062561,0.00839233
374,0.0215149,0.00244141,-0.01297,-0.00900269,0.0178528,0.00106812,0.0941467,0.019989,0.017395
375,0.0361633,0.00335693,-0.00549316,0.00808716,0.00732422,0.0161743,0.126038,0.0585938,0.0175476
375,0.0344849,0.0123596,-0.00854492,-0.00900269,0.0296021,0.0112915,0.043335,0.0665283,0.000915527
375,-0.015564,0.00457764,0.00534058,0.00442505,0.027771,0.0352478,0.0244141,0.0881958,0.00167847
375,-0.000305176,0.0193787,-0.0230408,-0.0141907,0.0112915,0.0193787,-0.00915527,0.0886536,0.0100708
375,-0.00854492,0.0262451,-0.00656128,0.00320435,0.014801,0.0128174,-0.0247192,0.0012207,-0.0149536
375,-0.00183105,0.0262451,0.0210571,0.00183105,-0.0141907,0.015564,-0.0744629,0.00717163,0.0190735
375,-0.012207,0.00747681,0.0422668,-0.00610352,-0.00991821,0.00991821,-0.0650024,-0.0177002,-0.0254822
375,0.0178528,0.030365,0.0454712,0.0050354,-0.015564,-0.00762939,-0.0158691,-0.0346375,0.0236511
375,-0.00579834,0.00778198,0.0439453,0.00701904,0.00976562,-0.00167847,-0.040741,-0.00274658,0.0163269
375,-0.0247192,0.00518799,0.0402832,-0.000457764,0.0115967,-0.040741,0.020752,0.0779724,0.0410461
376,0.0114441,0.0126648,0.0233459,0.0152588,0.0152588,-0.0366211,0.0259399,0.0701904,-0.00259399
376,-0.0112915,0.0105286,0.0299072,-0.000152588,0.0120544,-0.0204468,0.00686646,0.0285339,0.00335693
376,-0.0177002,0.00946045,-0.00732422,-0.00564575,0.022583,0.0372314,0.0308228,-0.0222778,0.0382996
376,-0.00946045,0.00656128,-0.0175476,0.00610352,-0.00778198,0.0344849,0.0115967,-0.106506,-0.0175476
376,-0.00610352,0.0257874,-0.0131226,-0.017395,0.0141907,0.0663757,-0.0358582,-0.0486755,0.032959
376,-0.0195312,0.0149536,0.00549316,0.0109863,0.0151062,0.0611877,-0.0416565,-0.0263977,-0.00900269
376,-0.00335693,0.0440979,0.0140381,-0.00473022,0.0149536,0.0430298,-0.0161743,0.0189209,0.0282288
376,0.00213623,-0.00289917,-0.00305176,0.0115967,0.03479,0.01297,0.00839233,0.04776,0.0109863
376,-0.0340271,0.0306702,0.0183105,0.00213623,0.00869751,0.00427246,0.0111389,0.0772095,0.022583
376,0.0112915,0.00488281,-0.00793457,0.0117493,0.00457764,-0.00900269,0.0140381,0.038147,-0.00549316
377,-0.0198364,-0.0216675,0.0186157,-0.000610352,-0.0260925,-0.0352478,0.0262451,0.0134277,-0.00457764
377,-0.00305176,0.0196838,0.00350952,-0.00930786,0.00457764,0.00610352,0.0384521,0.00976562,-0.017395
377,-0.0184631,-0.00396729,0.00518799,0.0338745,0.00518799,0.00289917,0.0547791,-0.0379944,-0.0154114
377,-0.0117493,0.030365,0.0198364,-0.00411987,0.00518799,0.0405884,0.0126648,0.0257874,0.0317383
377,-0.00167847,0.0337219,0.0234985,0.0213623,-0.030365,0.00762939,0.00350952,0.0436401,-0.00762939
377,-0.00991821,0.0050354,0.0442505,-0.00640869,-0.0209045,0.0297546,0.0540161,0.0608826,0.0457764
377,-0.0389099,0.0410461,0.0126648,0.00595093,-0.00488281,0.0144958,0.0372314,0.0276184,0.0114441
377,-0.0498962,0.00457764,0.0569153,0.0239563,-0.030365,0.00167847,0.0657654,0.00991821,0.000457764
377,-0.0265503,-0.00961304,0.0158691,0.0038147,0.010376,0.00106812,0.0285339,-0.00976562,-0.00442505
377,-0.00869751,0.0152588,0.0259399,0.0172424,0.00549316,-0.00808716,0.00549316,-0.0959778,-0.000915527
378,0.0128174,0.0143433,0.0213623,0.0100708,-0.0088501,0.0117493,-0.0918579,-0.0527954,0.00686646
378,-0.0186157,0.00442505,0.0564575,0.0422668,0.00793457,0.00640869,-0.065918,0.00457764,0.0088501
378,-0.014801,0.030365,0.030365,0.0228882,-0.00701904,0.027771,0.0254822,0.0375366,0.0108337
378,-0.0468445,0.00228882,0.0132751,0.00961304,0.0158691,0.0172424,0.0892639,-0.00732422,-0.010376
378,-0.0267029,0.0271606,0.0167847,0.00350952,0.017395,0.00778198,0.0463867,0.0483704,0.0257874
378,0,0.00564575,-0.00213623,0.0154114,0.0393677,0.0315857,0.0524902,0.030365,-0.0038147
378,0.00823975,0.00930786,-0.00213623,-0.00656128,-0.000152588,-0.0187683,-0.0114441,0.0144958,0.0247192
378,-0.000610352,0.0302124,-0.0151062,0.00900269,0.00549316,-0.0271606,0.000762939,0.0524902,-0.020752
378,-0.0387573,-0.00946045,-0.0218201,0.000762939,0.0190735,-0.00427246,0.0239563,0.0466919,0.0224304
378,-0.0405884,0.0198364,-0.0642395,0.00457764,0.00808716,-0.00137329,0.030365,0.0616455,0.0141907
379,-0.0326538,0.00320435,-0.0393677,0.019989,-0.00198364,0.00686646,0.0476074,0.0256348,0.0233459
379,0.0291443,0.0224304,-0.00778198,-0.00335693,0.0125122,0.0280762,0.0752258,0.0292969,0.0192261
379,0.0613403,-0.00213623,-0.0154114,0.00564575,0.0170898,0.0138855,0.0683594,0.0201416,0.0117493
379,0.0411987,0.0135803,-0.0346375,-0.0140381,-0.0126648,0.0285339,-0.00427246,0.0274658,0.030365
379,0.0088501,0.0106812,-0.0120544,0.0112915,0.00244141,0.0115967,-0.0408936,0.0460815,-0.0038147
379,-0.0137329,-0.00228882,0.00686646,-0.000915527,-0.0395203,0.0187683,0.0804138,0.0924683,0.00762939
379,-0.0196838,0.0337219,0.0144958,0.00900269,-0.0038147,0.0163269,0.0767517,0.058136,0.0137329
379,-0.00656128,0.0202942,0.0415039,0.0189209,-0.0213623,0.022583,-0.00823975,0.0102234,0.0283813
379,0.0358582,0.0222778,0.0201416,0.0244141,-0.0102234,0.0592041,-0.0744629,0.0488281,-0.00274658
379,0.0198364,-0.00946045,0.0108337,0.0311279,-0.0352478,0.0167847,-0.0717163,0.0239563,0.0106812
380,0.0379944,0.0184631,0.0151062,0.0202942,0.00534058,0.0257874,-0.0787354,0.0869751,0.0500488
380,0.0288391,0.0149536,0.00244141,0.0186157,0.0224304,-0.0196838,-0.00717163,0.00869751,0.0105286
380,0.0291443,0.0132751,-0.0106812,-0.0134277,-0.0120544,-0.0184631,0.0340271,-0.0704956,0.0202942
380,0.0012207,0.0134277,-0.0152588,-0.0213623,0.00137329,-0.0442505,0.107574,-0.133209,-0.00457764
380,0.0012207,0.00946045,0.00473022,0.00640869,0.0187683,-0.0436401,0.0831604,-0.0949097,0.0305176
380,0.00183105,-0.00320435,-0.0291443,0.00228882,0.0765991,-0.0123596,0.0975037,-0.0393677,-0.0209045
380,0.0372314,0.0108337,0.0149536,0.00274658,0.0608826,-0.00335693,0.0628662,0.0515747,0.0236511
380,0.0415039,0.0296021,0.00747681,0.00289917,0.0823975,-0.00335693,-0.0209045,0.0430298,0.0431824
380,0.0268555,0.0228882,0.0169373,0.0228882,0.0454712,0.0105286,-0.0611877,-0.0100708,0.0308228
380,0.0364685,0.0117493,-0.00762939,-0.000152588,0.0405884,0.0213623,-0.0325012,-0.0518799,0.03479
381,-0.0158691,-0.000305176,0.0062561,0.00793457,0.0213623,-0.00152588,-0.0250244,-0.0369263,0.00900269
381,-0.00701904,0.00183105,-0.00167847,-0.00137329,0.0143433,-0.000457764,-0.0508118,0.050354,0.0283813
381,-0.0125122,-0.00717163,-0.00717163,0.0149536,0.00595093,0.0204468,0.0239563,0.0842285,-0.0100708
381,-0.0190735,0.00106812,0.0119019,-0.0012207,-0.0306702,0.0119019,0.00640869,0.121918,0.0135803
381,-0.00106812,0.00656128,-0.00167847,0.0135803,0.00534058,0.0270081,-0.0640869,0.0349426,0.00228882
381,0.00274658,0.0120544,0.0205994,0.0128174,0.0167847,-0.0184631,-0.0921631,0.0114441,0.0236511
381,0.0259399,0.0149536,0.0126648,0.0169373,0.00732422,-0.0134277,-0.0489807,-0.078125,0.0115967
381,0.0267029,0.00274658,0.0218201,0.0163269,-0.0212097,-0.022583,-0.01297,-0.0669861,0.0187683
381,0.0363159,-0.0062561,0.00137329,0.00289917,0.0108337,-0.0523376,0.0205994,-0.0370789,0.0135803
381,0.00686646,-0.01297,-0.00457764,0.00762939,0.0112915,-0.0444031,0.0476074,-0.0643921,0.0245667
382,0.0138855,0.00427246,-0.0292969,-0.00640869,-0.0109863,-0.0257874,0.0445557,-0.0468445,0.0062561
382,-0.0125122,-0.0157166,-0.0167847,0.00198364,0.00213623,-0.0282288,0.0930786,-0.08255,-0.00289917
382,-0.00976562,0.0318909,-0.0152588,0.00350952,0.0126648,-0.0364685,0.110931,-0.0444031,0.0172424
382,0.0480652,-0.00579834,-0.0184631,0.0231934,-0.00183105,-0.0349426,0.0376892,-0.0405884,-0.000305176
382,0.017395,0.00411987,-0.00930786,0.000152588,0.0012207,-0.0012207,-0.0146484,-0.0146484,0.0224304
382,0.0308228,0.00946045,-0.0163269,0.0202942,0.018158,0.0283813,0.0102234,-0.0590515,-0.00564575
382,0.0317383,0.0105286,-0.000915527,-0.00411987,-0.0112915,0.00961304,0.0601196,-0.0906372,0.0146484
382,0.00793457,-0.0115967,-0.0175476,-0.0120544,0.00930786,0.0205994,-0.00228882,-0.0186157,-0.00259399
382,0.00991821,0.00427246,-0.0100708,0.00152588,0.0268555,0.0238037,0.00671387,0.0169373,-0.000762939
382,0.0141907,0.0195312,-0.00579834,0.0166321,0.01297,0.0299072,0.0267029,0.0593567,0.0050354
383,0.00747681,-0.00198364,0.0106812,0.0259399,-0.00610352,-0.0157166,0.093689,0.0727844,0.00289917
383,0.0125122,0.0334167,0.0257874,0.0137329,-0.0125122,-0.0169373,0.09552,0.12207,0.0263977
383,0.00854492,0.0151062,0.0282288,0.0196838,-0.0361633,-0.0209045,0.110626,0.070343,-0.0105286
383,0.0294495,0.0202942,0.0192261,-0.00518799,-0.0167847,0.0248718,0.0263977,0.0617981,0.00518799
383,0.0318909,0.0230408,0.0283813,-0.00427246,0.0456238,0.0872803,-0.014801,-0.0541687,-0.00167847
383,0.00946045,0.00991821,0.014801,0.0114441,0.0740051,0.0906372,-0.0125122,-0.100098,0.0123596
383,0.00640869,0.0160217,0.014801,0.025177,0.0416565,0.0628662,0.0497437,-0.119476,0.0320435
383,0.0154114,0.025177,0.00671387,0.00274658,0.0361633,0.0889587,-0.055542,-0.0942993,0.00595093
383,-0.00106812,0.0296021,0.0219727,0.0227356,-0.00869751,0.0440979,-0.0317383,-0.159912,0.00427246
383,-0.0326538,0.010376,0.0115967,-0.00778198,-0.00289917,0.0569153,-0.0190735,-0.0784302,0.0180054
384,-0.0273132,-0.0149536,0.00564575,0.00930786,0.00167847,-0.0192261,-0.0367737,-0.0146484,-0.00839233
384,0.0366211,-0.0038147,0.00686646,0.0108337,-0.0219727,-0.038147,-0.0628662,-0.0473022,0.0137329
384,0.0320435,-0.000762939,0.0123596,0.0180054,-0.025177,-0.0370789,-0.0120544,-0.0669861,0.0193787
384,0.00610352,-0.000152588,0.0115967,-0.000152588,-0.0180054,-0.0050354,-0.0297546,0.025177,0.0177002
384,0.014801,0.00610352,0.0158691,0.0115967,0.00946045,0.0527954,-0.0270081,0.133514,0.00595093
384,0.0413513,0.0230408,0.0239563,0.0062561,0.0276184,0.06073,0.00595093,0.142212,0.0352478
384,0.0831604,0.0254822,0.01297,0.0254822,0.0259399,0.0384521,0.00686646,0.0576782,0.0138855
384,0.0793457,0.00732422,0.0231934,0.00732422,0.0340271,0.0221252,0.0219727,0.0230408,0.0561523
384,0.0753784,0.0114441,0.00930786,0.0305176,0.0195312,0.0167847,-0.0038147,-0.0119019,-0.00350952
384,0.0285339,0.0222778,0.0296021,0.00320435,0.00686646,-0.0186157,0.0462341,-0.00213623,0.0285339
385,0.0395203,-0.00427246,-0.00213623,0.00106812,0.0222778,-0.0361633,0.0483704,0.0221252,0.0202942
385,0.017395,-0.00427246,0.0119019,0.0038147,-0.0279236,-0.0486755,0.0361633,0.0567627,0.0160217
385,0.0111389,0.000915527,0.00396729,0.0038147,-0.0308228,-0.0126648,0.0593567,0.0596619,0.032196
385,-0.00244141,0.0195312,0.015564,0.0114441,-0.0436401,-0.0151062,0.045166,0.063324,0.0305176
385,0.0297546,0.015564,0.0138855,-0.00366211,0.00640869,0.0222778,-0.0254822,0.10025,0.0132751
385,0.0405884,0.0120544,0.0268555,0.0328064,0.0260925,0.0244141,-0.0216675,0.083313,-0.00289917
385,0.0117493,0.0154114,0.0222778,0.0335693,0.0331116,0.057373,-0.00579834,0.126648,0.0505066
385,0.0213623,0.0114441,0.0274658,0.0305176,0.0216675,0.0360107,0.00610352,0.00900269,-0.00778198
385,0.0108337,0.0126648,0.0248718,0.0102234,0.00137329,0.0198364,-0.0105286,-0.0125122,0.0160217
385,0.0253296,-0.0215149,0.00656128,0.0227356,0.0439453,-0.0190735,-0.0341797,0.00320435,-0.00427246
386,0.0184631,0.019989,0.030365,0.00595093,0.0344849,-0.0575256,0.00564575,0.0775146,0.0128174
386,0.0189209,0.00350952,0.00106812,0.00610352,0.0141907,-0.0480652,0.00534058,0.0291443,0.0132751
386,-0.0138855,0.014801,0.0224304,0.0215149,0.0326538,-0.0250244,0.0891113,-0.0216675,0.0114441
386,0.0144958,0.0259399,0.0180054,0.0163269,0.0192261,0.0495911,0.0891113,0.00793457,0.0274658
386,-0.00671387,0.0166321,0.0366211,0.00961304,0.00946045,0.0256348,0.0694275,-0.0115967,0.0234985
386,0.0222778,0.00656128,0.0119019,0.0119019,0.0143433,0.0532532,0.0367737,0.0158691,0.0454712
386,0.010376,0.00274658,0.019989,0.0198364,0.0175476,0.0312805,-0.00549316,0.0169373,0.0234985
386,0.0267029,0.0157166,0.0062561,-0.000915527,-0.00671387,0.0144958,-0.0469971,0.0628662,0.017395
386,0.000305176,-0.000305176,0.0128174,0.0285339,0.0346375,0.0260925,-0.0454712,0.0836182,0.00793457
386,0.0157166,0.0128174,0.0128174,-0.000457764,0.000610352,0.0364685,-0.00534058,0.0349426,0.0314331
387,-0.0138855,0.00488281,-0.000915527,0.0151062,-0.00732422,0.0247192,0.0358582,0.0392151,0.0161743
387,0.00167847,-0.00488281,-0.0100708,0.00656128,-0.000610352,0.00762939,0.0672913,0.0218201,0.0335693
387,-0.00534058,-0.0114441,0.00991821,-0.00305176,0.0105286,-0.00167847,0.0778198,0.00488281,0.0128174
387,-0.00350952,-0.015564,-0.0012207,-0.0050354,0.0572205,-0.00701904,-0.0799561,0.000152588,0.0186157
387,0.0112915,0.00457764,0.0263977,0.0170898,0.0289917,-0.015564,-0.0767517,-0.0390625,-0.015564
387,0.0012207,0.037384,0.0256348,0.0088501,0.00167847,0,-0.0325012,-0.091095,0.0346375
387,0.00137329,0.00213623,-0.00488281,0.0317383,0.00991821,-0.00823975,-0.0267029,-0.0932312,-0.000152588
387,0.000610352,0.0128174,0.0177002,0.0120544,0.00518799,0.0123596,-0.0314331,-0.00717163,0.0361633
387,0.00518799,0.00869751,-0.0395203,0.00595093,0.0292969,0.0300598,-0.000762939,-0.00335693,0.0141907
387,-0.030365,-0.00930786,0.0141907,0.0111389,-0.00564575,0.00717163,0.0466919,0.0154114,0.0361633
388,0.00823975,0.00350952,-0.00320435,0,0.0123596,0.0382996,-0.00915527,-0.01297,-0.0175476
388,0.00564575,0.0111389,0.00640869,0.0178528,-0.00411987,0.0178528,0.0230408,-0.0523376,0.0100708
388,0.00991821,0.0154114,0.00473022,0.014801,0.00854492,0.0105286,-0.00640869,-0.0688171,0.0360107
388,0.0088501,-0.00305176,0.0123596,0.0398254,-0.00808716,-0.0160217,0.0131226,-0.0456238,0.000915527
388,0.0396729,0.0128174,0.0198364,0.0218201,-0.0193787,0.0169373,0.0151062,-0.0302124,0.0410461
388,0.027771,0.00137329,0.0178528,0.04776,0.0233459,-0.00167847,0.0210571,-0.063324,0.0114441
388,0.00213623,0.0114441,0.0195312,0.00717163,-0.00228882,0.00198364,0.0128174,-0.00595093,0.0273132
388,0.0167847,0.00930786,0.0138855,0.0234985,0.00579834,-0.00686646,0.0234985,0.0346375,0.00900269
388,0.0109863,-0.000457764,0.00579834,0.0312805,-0.00854492,-0.00137329,0.0299072,0.0605774,0.0187683
388,0.0201416,-0.00900269,-0.019989,0.00198364,-0.00213623,0.0215149,-0.0212097,0.071106,0.0282288
389,-0.000152588,-0.0144958,0.00701904,0.014801,-0.0134277,-0.0038147,-0.00137329,0.0863647,0.0250244
389,0.00244141,0.00366211,0.00915527,0.0184631,-0.0253296,0.0364685,0.0230408,0.0856018,-0.00488281
389,0.0119019,0.0106812,-0.00274658,0.017395,-0.0193787,0.0108337,0.0471497,0.113373,0.0186157
389,0.0257874,0.012207,-0.0241089,-0.00244141,-0.0305176,0.0184631,0.0274658,0.124359,0.0311279
389,0.0175476,0.00717163,-0.0248718,0.0149536,-0.0187683,0.00457764,0.0234985,0.0578308,-0.00595093
389,0.00747681,0.0253296,-0.00869751,0.0138855,-0.0344849,-0.00213623,-0.000915527,0.0405884,0.0526428
389,-0.00427246,0.0102234,-0.0125122,0.00640869,-0.0105286,-0.00106812,0.0372314,-0.0326538,-0.0062561
389,0.0125122,0.000457764,0.00701904,0.00198364,0.00732422,-0.0062561,0.0291443,-0.0157166,0.0343323
389,-0.0062561,-0.0141907,0.0296021,-0.0038147,0.030365,-0.027771,0.0233459,-0.0418091,0.0241089
389,-0.0242615,-0.00228882,0.0750732,-0.00442505,0.00701904,0.00320435,0.00305176,-0.0595093,0.0210571
390,0.0320435,0.0343323,0.0608826,-0.00701904,-0.0241089,-0.0228882,0.00823975,-0.0439453,0.0163269
390,-0.0170898,0.00686646,0.0912476,0.00961304,-0.0283813,-0.0370789,0.039978,-0.00732422,0.0204468
390,0.0285339,0.0335693,0.0776672,0.0180054,-0.00854492,-0.0164795,0.0622559,0.0411987,0.0296021
390,-0.01297,0.00549316,0.0582886,0.0241089,-0.0352478,-0.0195312,0.0611877,0.0158691,0.0140381
390,0.0152588,0.0253296,0.0180054,-0.00823975,-0.0128174,0.00473022,0.00564575,0.0202942,0.045929
390,-0.00289917,-0.00228882,-0.0408936,0.0314331,-0.00961304,-0.0131226,-0.0126648,0.0163269,0.0131226
390,-0.0109863,0.035553,-0.0672913,-0.025177,-0.0326538,0.00732422,0.000152588,0.032196,0.0624084
390,0.000457764,0.0273132,-0.0749207,-0.00839233,-0.0115967,-0.0167847,0.0411987,-0.0282288,0.0170898
390,0.00335693,0.0274658,-0.0460815,0.000305176,-0.0297546,-0.00167847,0.0491333,-0.0674438,0.0117493
390,0.0216675,0.0460815,-0.0358582,0.0213623,0.0271606,-0.0111389,0.0265503,-0.0735474,0.0198364
391,0.0218201,0.0245667,0.00259399,0.0326538,0.017395,-0.00167847,0.0253296,-0.0410461,0.00930786
391,0.0108337,0.0062561,0.0393677,0.0315857,0.0483704,0.039978,0.0268555,0.0125122,0.0361633
391,-0.025177,0.0137329,0.0410461,0.0317383,0.0413513,0.042572,0.0505066,0.0375366,0.0250244
391,-0.00305176,0.0167847,0.0170898,0.0395203,0.0219727,0.0564575,0.0109863,0.0639343,0.0358582
391,-0.0151062,0.0166321,-0.0250244,0.0296021,0.00869751,0.0405884,0.00244141,0.0334167,0.0291443
391,-0.00473022,0.0421143,-0.000915527,0.0105286,0.0209045,0.0440979,-0.0114441,0.0576782,0.045166
391,-0.017395,-0.0106812,0.0723267,0.0320435,0.0401306,0.0367737,0.0192261,0.0479126,0.00991821
391,-0.00549316,-0.0137329,0.113983,0.00106812,0.0436401,0.0340271,-0.00198364,0.0683594,0.0549316
391,-0.000457764,0.0109863,0.133972,0.00137329,0.0460815,-0.000762939,0.000762939,0.0172424,0.00808716
391,-0.0115967,0.00854492,0.109253,0.0215149,0.0234985,0.00762939,-0.00656128,0.0189209,0.0343323
392,0.0038147,0.0108337,0.0538635,0.00610352,0.0311279,-0.000610352,0.00854492,0.0158691,0.000305176
392,-0.0146484,-0.00442505,0.075531,0.0390625,0.0088501,-0.00427246,0.0231934,-0.00595093,0.0230408
392,0.00717163,-0.0285339,-0.00411987,0.012207,0.0323486,0.0254822,0.00900269,-0.00930786,0.0178528
392,-0.0364685,-0.0106812,-0.0189209,0.00991821,0.01297,0.00228882,-0.00549316,-0.0125122,0.0128174
392,0.0125122,0.025177,-0.0396729,0.0105286,0.0233459,0.000610352,-0.0309753,0.0466919,0.00915527
392,-0.0117493,0.0117493,-0.0436401,0.00823975,0.022583,-0.00640869,-0.0146484,0.0135803,-0.0137329
392,0.00320435,0.0175476,-0.0624084,0.0195312,0.0205994,0.0244141,-0.0157166,0.0221252,0.0231934
392,0.00656128,0.0137329,-0.050354,0.0233459,-0.00228882,0.00976562,0.0202942,-0.00946045,-0.00808716
392,-0.000762939,0.0196838,0.019989,0.0184631,0.00244141,0.012207,0.0256348,0.0259399,0.00793457
392,-0.010376,0.0160217,0.0164795,0.00900269,0.0184631,0.00305176,0.0201416,0.0379944,0.00335693
393,-0.0285339,-0.00228882,0.00137329,0.00473022,0.0183105,-0.0183105,0.0418091,0.0332642,0.00198364
393,-0.00701904,-0.00320435,-0.0291443,-0.000762939,-0.00595093,-0.03479,0.0241089,0.000457764,0.00732422
393,-0.0265503,0,-0.0201416,0.00656128,-0.0273132,-0.0474548,0.00473022,-0.0364685,-0.00762939
393,0.000457764,0.0151062,-0.0367737,-0.0126648,-0.0283813,-0.019989,-0.000762939,0.00167847,-0.0224304
393,0.00534058,0.0241089,-0.0427246,0.017395,-0.0088501,0.0012207,0.0216675,0.000762939,-0.0350952
393,0.0109863,0.0395203,-0.0335693,0.00167847,-0.0186157,0.017395,0.00900269,0.0437927,0.00457764
393,-0.0120544,0.0202942,-0.00610352,0.0222778,0.0114441,0.0294495,0.0123596,0.00610352,-0.0334167
393,-0.000305176,0.0253296,0.0126648,0.00442505,0.0267029,0.0552368,-0.0131226,0.0854492,0.00427246
393,-0.00350952,0.0279236,0.015564,0.0128174,0.0648499,0.0273132,-0.0195312,0.0686646,-0.0205994
393,-0.0131226,0.0227356,0.00839233,-0.0193787,0.0370789,0.0205994,-0.00167847,-0.0128174,-0.0265503
394,-0.000152588,-0.00640869,-0.0158691,0.00534058,0.0332642,0.012207,0.0149536,-0.0378418,-0.0242615
394,-0.000305176,-0.000762939,-0.0259399,0.00915527,0.018158,0.00442505,0.0175476,-0.0424194,-0.0305176
394,-0.0144958,0.0271606,-0.0221252,0.0183105,0.0428772,0.0192261,0.00518799,-0.0230408,-0.0289917
394,-0.0149536,0.0198364,-0.000762939,0.0166321,0.0231934,0.00244141,0.0349426,-0.0263977,-0.0169373
394,-0.00686646,0.0276184,0.0280762,0.0062561,0.00839233,-0.0135803,0.040741,0.00152588,-0.0170898
394,0.0115967,0.0109863,0.0108337,0.0170898,0.0338745,-0.0276184,0.0144958,-0.0260925,-0.0354004
394,-0.0163269,0.0158691,0.0509644,0.0125122,0.000457764,-0.00518799,0.00366211,0.0254822,-0.00259399
394,0.0152588,-0.00335693,0.0344849,0.00106812,0.0213623,-0.0184631,0.0138855,0.017395,-0.0187683
394,-0.00793457,0.0157166,0.0318909,-0.0268555,-0.00442505,-0.0114441,-0.00427246,0.0228882,-0.0209045
394,-0.00213623,-0.0125122,0.0192261,0.00839233,0.0105286,0.0108337,-0.00427246,0.00869751,-0.0292969
395,-0.00167847,-0.00167847,0.0267029,0.00671387,-0.0149536,0.0230408,0.0183105,-0.0102234,-0.0256348
395,0.00427246,0.020752,-0.00228882,0.0111389,-0.0183105,0.00839233,0.00961304,-0.0375366,-0.0578308
395,-0.0178528,-0.00686646,0.00411987,0.0167847,-0.0161743,0.0262451,0.0111389,-0.0128174,-0.0157166
395,0.0088501,0.00579834,-0.0250244,0.0210571,-0.0114441,0.01297,0.0149536,-0.037384,-0.0292969
395,0.00656128,0.0259399,-0.00350952,0.0149536,-0.0102234,0.0169373,0.00915527,-0.0288391,-0.0270081
395,-0.000152588,-0.00534058,0.00991821,0.0236511,0.0474548,0.00671387,-0.0102234,0.0212097,-0.0386047
395,-0.00198364,0.00793457,0.0062561,0.0241089,0.0350952,0.0231934,-0.00244141,0.0469971,-0.0190735
395,-0.0177002,-0.0125122,0.0126648,0.0323486,0.0447083,-0.00427246,0.0157166,0.0639343,-0.0350952
395,0.00473022,0.00579834,0.0579834,0.0285339,0.0190735,-0.0126648,0.0050354,0.052948,-0.0241089
395,0.00198364,-0.00183105,0.0274658,0.0167847,0.00320435,-0.0012207,0.0109863,0.00442505,-0.0283813
396,-0.0170898,-0.0128174,0.0300598,-0.0282288,-0.00747681,0.0141907,0.0190735,0.032196,0.000305176
396,-0.0062561,0.0186157,0.0238037,-0.000457764,0.00473022,-0.0175476,0.0221252,0.0114441,-0.0354004
396,-0.0138855,0.03479,0.0323486,0.00213623,0.00579834,0.000457764,0.00106812,0.022583,-0.00762939
396,-0.0204468,-0.0126648,0.0379944,0.00549316,0.0125122,0.0109863,0.00183105,0.027771,-0.0312805
396,-0.00198364,0.00640869,0.0247192,-0.00579834,-0.0163269,-0.000915527,0.0140381,0.055542,0.00274658
396,-0.00747681,0.00259399,0.027771,-0.000152588,0.0143433,-0.0180054,-0.00305176,0.00640869,-0.0335693
396,-0.00473022,0.0280762,0.0209045,-0.00778198,0.0123596,-0.000305176,-0.00183105,0.00335693,0.0012207
396,-0.0192261,0.00244141,-0.00244141,-0.00762939,0.0157166,-0.000610352,0.00183105,-0.0123596,-0.030365
396,-0.0172424,0.017395,0.0190735,-0.0119019,0.00198364,-0.00701904,-0.0137329,0.00610352,-0.0115967
396,0.00534058,0.0250244,0.00183105,-0.00320435,0.0267029,-0.0260925,0.00183105,0.0038147,-0.0386047
397,-0.0123596,0.0158691,0.0196838,-0.00473022,-0.018158,0.0161743,0.0106812,0.00991821,-0.0238037
397,-0.00320435,0.0120544,0.0233459,0.00701904,0.032196,0.0138855,0.00549316,-0.0105286,-0.0424194
397,-0.0144958,0.025177,0.0314331,0.00396729,0.0276184,0.0151062,0.00335693,0.0308228,-0.00854492
397,-0.0152588,0.00152588,0.0222778,0.0134277,0.0250244,-0.022583,0.0193787,0.0250244,-0.0285339
397,-0.020752,0.0123596,0.0328064,0.00259399,-0.00335693,0.00366211,0.0288391,0.0453186,0.0088501
397,0.00946045,0.00717163,0.0308228,0.0106812,-0.0201416,-0.0256348,0.00183105,-0.0161743,-0.0343323
397,-0.0234985,0.0102234,0.0228882,0.0108337,0.00595093,0.014801,-0.00289917,0.0280762,0.000305176
397,-0.00152588,-0.00350952,0.0137329,0.00610352,0.0515747,-0.00473022,0.0180054,-0.00778198,-0.0198364
397,0.0100708,0.000915527,0.0244141,0.00854492,0.00930786,0.0114441,-0.00244141,0.0335693,0.00976562
397,-0.0219727,-0.0154114,0.0109863,0.00366211,0.025177,0.0050354,-0.00106812,-0.00915527,-0.0088501
398,-0.0193787,0.00534058,-0.012207,-0.00854492,-0.00198364,0.0202942,-0.0149536,0.0411987,-0.0100708
398,0.00473022,0.00213623,-0.0396729,-0.0221252,-0.00610352,-0.0276184,0.00411987,-0.00671387,-0.0151062
398,0.00396729,0.0233459,-0.0132751,-0.01297,-0.0012207,0.00427246,-0.0131226,0.00640869,0.0183105
398,0.0131226,0.00137329,-0.0146484,-0.00152588,0.00701904,-0.00518799,0.032196,-0.0265503,-0.00976562
398,-0.0149536,0.00930786,-0.00320435,-0.0157166,0.00106812,0.00671387,0.0106812,0.0204468,-0.00228882
398,-0.00488281,0.0132751,0.0196838,0.0135803,0.00534058,-0.000762939,0.00320435,0.00930786,0.00152588
398,-0.00427246,0.0195312,-0.000915527,-0.00274658,0.0100708,0.0247192,-0.00350952,-0.00106812,-0.00900269
398,-0.00549316,0.0135803,0.0163269,-0.00289917,0.0152588,-0.00183105,0.0111389,0.000610352,-0.0297546
398,-0.00701904,0.0286865,0.0183105,-0.00930786,-0.00137329,0.00305176,0.000762939,0.00366211,0.0415039
398,0.00320435,0.00259399,0.0178528,0.025177,0.00198364,0.00305176,0.00762939,-0.0138855,-0.0244141
399,-0.00808716,0.0119019,0.00228882,-0.00823975,0.00335693,0.014801,0.012207,0.0297546,0.00106812
399,-0.0137329,-0.00671387,0.0144958,0.00305176,0.000610352,-0.000457764,0.0270081,-0.000152588,-0.00396729
399,-0.00854492,0.0219727,-0.00915527,0.00610352,0.017395,0.00839233,0.0233459,0.0286865,0.0263977
399,0.00488281,0.0115967,0.0062561,0.00762939,0.0422668,0.000457764,0.0254822,0.010376,-0.0178528
399,0.0341797,0.0111389,0.00946045,-0.00137329,0.00305176,0.0231934,0.0253296,0.0270081,0.0109863
399,-0.0143433,-0.00839233,0.0157166,0.0062561,0.00595093,0.00152588,-0.00457764,0.00808716,-0.00518799
399,0.00137329,0.0262451,0.0192261,-0.0062561,-0.00854492,0.0172424,0.0143433,0.00915527,0.0137329
399,0.00106812,0.00457764,0.00869751,0.00442505,0.0267029,-0.012207,0.00656128,-0.00946045,0.00366211
399,0.012207,0.0332642,0.0268555,-0.0062561,0.0238037,0.000915527,-0.000305176,0.0460815,0.017395
399,0.0038147,0.0138855,0.0111389,0.0117493,0.0164795,-0.0151062,-0.000762939,-0.0138855,-0.0169373
400,0.0126648,0.00976562,0.0117493,-0.0050354,0.00732422,-0.00183105,0,0.00823975,0.0227356
400,0.0228882,0.010376,0.0192261,-0.0268555,0.0149536,-0.0161743,0.0105286,-0.042572,0.00823975
400,0.0201416,0.0363159,0.0344849,-0.00167847,0.020752,-0.0100708,-0.00335693,0.00442505,0.0151062
400,0.0205994,0.0292969,0.0315857,0.0218201,0.0598145,0.0244141,-0.000762939,0.0283813,0.027771
400,0.0285339,0.0183105,0.0108337,0.0137329,0.0236511,0.0102234,0.0262451,0.0518799,0.0117493
400,0.0263977,0.00259399,0.0198364,0.00305176,0.0109863,0.00656128,0.00747681,0.0190735,-0.00823975
400,0.0111389,0.00823975,0.0370789,0.0288391,0.00732422,-0.014801,0.019989,0.0132751,0.00717163
400,0.0161743,0.00152588,-0.0062561,-0.0120544,-0.000915527,0.00564575,-0.00366211,0.0222778,0.00198364
400,-0.0117493,-0.00366211,0.0198364,0.00366211,0.00259399,-0.00747681,0.0189209,-0.00640869,0.0108337
400,0.0126648,0.00320435,0.0050354,-0.00320435,-0.0100708,0.0109863,0.00244141,0.0323486,0.0164795
401,0.0134277,-0.0119019,0.0282288,0.0389099,-0.00976562,-0.0192261,0.0102234,0.00137329,-0.00778198
401,0.0308228,0.00640869,0.0230408,0.0317383,-0.0193787,0.0112915,0.00930786,0.0544739,0.00198364
401,0.0401306,0.0105286,0.0221252,0.0430298,-0.0244141,0.0167847,0.00671387,-0.00427246,-0.00366211
401,0.0317383,0.0132751,0.0260925,0.0320435,-0.0265503,0.00259399,-0.00610352,0.0289917,0.0357056
401,0.0418091,-0.0109863,-0.020752,0.00549316,0.0465393,0.0230408,0.0109863,0.0296021,0.0265503
401,0.00732422,-0.0154114,0.012207,0.0198364,0.0250244,-0.012207,0.0202942,0.00427246,0.000305176
401,0.00976562,0.00579834,-0.0117493,0.032959,0.0308228,0.0163269,0.0167847,-0.018158,0.0114441
401,0.014801,0.00488281,0.00701904,0.0354004,0.0424194,-0.00259399,0.0212097,0.00350952,0.0135803
401,0.0222778,0.027771,0.00305176,0.00305176,0.0331116,0.0062561,0.0289917,0.014801,0.00778198
401,0.0210571,-0.00762939,0.0227356,0.045929,0.0350952,0.00778198,0.0106812,-0.0253296,0.0102234
402,0.00152588,0.00564575,-0.00137329,0.0180054,0.0210571,0.0108337,0.0100708,0.0282288,0.0428772
402,0.032959,-0.0114441,-0.032196,0.0331116,0.0489807,0.00656128,0.0138855,-0.0213623,-0.00106812
402,0.0178528,0.00869751,-0.0158691,0,0.0126648,-0.0062561,0.0137329,-0.00152588,0.0256348
402,0.0205994,0.0154114,-0.0242615,-0.000152588,0.0331116,-0.00259399,-0.0164795,0.0190735,0.0178528
402,-0.00701904,-0.00747681,-0.0195312,0.0126648,-0.00717163,0.0140381,0.00183105,-0.00366211,0.000305176
402,-0.000915527,0.0175476,-0.0126648,-0.0187683,-0.0263977,-0.00778198,0.00335693,0.0245667,0.0178528
402,-0.00915527,0.0178528,-0.00152588,0.0291443,0.0462341,-0.000762939,0.00701904,-0.015564,0.0140381
402,-0.00350952,0.0161743,-0.0151062,0.000152588,0.0167847,0.0195312,-0.0141907,0.0257874,0.0431824
402,0.015564,0.0163269,-0.00213623,0.0285339,0.00869751,0.00274658,0.0125122,-0.0108337,-0.00442505
402,0.00305176,0.019989,0.0123596,0.0201416,-0.0088501,0.0218201,-0.00106812,0.019989,0.0349426
403,-0.0050354,0.0088501,-0.0117493,0.0212097,-0.0236511,0.00976562,-0.0164795,0.0210571,-0.0128174
403,-0.0213623,-0.00778198,-0.0216675,0.0292969,-0.0257874,0.0221252,0.0119019,-0.00610352,0.0241089
403,-0.00259399,0.000305176,0.00274658,0.0213623,-0.0132751,-0.0062561,0.0105286,-0.00442505,0.0192261
403,-0.0167847,0.0123596,-0.0146484,0.0299072,0.00640869,-0.00335693,0.00656128,-0.014801,0.0038147
403,-0.000457764,0.0189209,-0.0132751,-0.0128174,0.0323486,0.0292969,0.00335693,0.0256348,0.0157166
403,0.01297,0.0331116,0.0140381,0.00442505,0.0382996,0.0114441,0.00854492,0.0204468,0.000457764
403,0.0152588,0.0196838,-0.00198364,-0.00305176,0.0546265,0.0202942,-0.0100708,0.0178528,0.00518799
403,-0.00350952,-0.00473022,-0.0230408,-0.000915527,0.0354004,0.0152588,0.0143433,0.0038147,0.000305176
403,-0.00183105,-0.000762939,-0.0120544,0.00167847,0.00564575,0.0161743,0.00335693,0.0120544,0.0370789
403,-0.0137329,0.00488281,-0.0160217,0.00961304,0.000762939,0.0178528,-0.000610352,0.0154114,0.00732422
404,-0.0117493,-0.00747681,-0.0215149,-0.00564575,-0.0462341,0.0335693,0.0100708,0.0050354,0.0144958
404,-0.000915527,0.00747681,-0.0427246,-0.012207,-0.0869751,0.00778198,0.0135803,-0.00930786,0.00427246
404,-0.0300598,0.0228882,-0.0202942,0.020752,-0.0985718,-0.00991821,0.0164795,-0.00183105,0.00732422
404,0.0178528,0.0196838,-0.0430298,0.0114441,-0.127869,0.00839233,-0.0140381,-0.0193787,0.00411987
404,-0.0105286,0.0297546,-0.00335693,0.0158691,-0.107117,0.0111389,0.018158,-0.0172424,0.0215149
404,0.0050354,0.0320435,-0.0164795,-0.00839233,-0.0289917,0.0123596,0.012207,0.0282288,-0.00350952
404,-0.0151062,0.0189209,-0.0144958,0.0128174,0.0120544,0.00457764,0.0112915,0.00106812,0.0151062
404,-0.000915527,0.0274658,-0.0254822,-0.0106812,0.161743,0.0109863,0.00137329,0.0205994,0.0305176
404,-0.00640869,0.010376,-0.0190735,0.00152588,0.185089,-0.0140381,0.0112915,0.0364685,-0.00717163
404,-0.0285339,0.0236511,-0.00823975,-0.0286865,0.155487,0.0131226,-0.0213623,0.0184631,0.000762939
405,-0.00534058,0.00747681,-0.0175476,-0.0236511,0.131836,0.00854492,-0.00167847,0.0146484,-0.0267029
405,-0.0151062,0.0088501,-0.0219727,-0.0239563,0.0289917,0.018158,0.0125122,0.037384,0.0100708
405,0.000915527,0.0196838,-0.0180054,-0.00946045,-0.0346375,0.0227356,0.00335693,0.0193787,0.00411987
405,0.00518799,0.0239563,-0.0106812,0.00915527,-0.166168,0.00732422,-0.00335693,0.00839233,0.0140381
405,-0.00457764,-0.000762939,-0.0280762,0.00396729,-0.12558,0.0241089,-0.0202942,0.0332642,-0.00793457
405,-0.0105286,0.01297,-0.00213623,-0.00305176,-0.0712585,-0.00976562,0.0100708,0.00976562,0.0112915
405,0.0117493,0,0.00152588,-0.0154114,-0.0692749,-0.000457764,0.00473022,-0.00106812,-0.0126648
405,-0.0202942,0.0189209,-0.0294495,-0.0170898,-0.137024,-0.00701904,0.0271606,-0.0259399,-0.0119019
405,-0.00732422,0.0384521,-0.0299072,-0.0286865,-0.0514221,0.0112915,0.0137329,0.0106812,0.0108337
405,0.00747681,0.0184631,-0.0242615,-0.0132751,-0.0875854,-0.00534058,0.0123596,-0.0317383,-0.0228882
406,0.00152588,0.0141907,0.0209045,0.000610352,-0.0842285,0.0341797,0.00366211,0.0213623,0.019989
406,0.0146484,0.0300598,0.00946045,-0.0109863,-0.0524902,0.0190735,0.015564,0.0338745,-0.00961304
406,-0.00366211,0.0367737,0.0375366,-0.00961304,0.0958252,0.0157166,-0.0210571,0.0386047,-0.00350952
406,0.0218201,0.0126648,0.0161743,-0.00152588,0.218811,-0.0204468,-0.0158691,0.0440979,0.00320435
406,-0.00701904,0.00778198,-0.00152588,0.00610352,0.118561,0.0108337,0.0169373,0.00823975,0.00457764
406,0.0209045,0.00854492,-0.00427246,-0.00869751,0.0215149,0.00854492,0.0288391,0.00457764,-0.0344849
406,0.000457764,0.0126648,0.0205994,0.00396729,0.032196,-0.0125122,0.0419617,-0.0473022,-0.000305176
406,0.00640869,-0.00534058,0.0183105,-0.0170898,0.071106,0.00335693,0.0231934,0.0050354,-0.0108337
406,-0.000457764,-0.00213623,0.0184631,0.000915527,0.167847,0.00854492,0.0152588,-0.0125122,-0.0305176
406,0.00488281,0.038147,0.027771,-0.0138855,0.218506,0.0134277,-0.00946045,0.0192261,0.00915527
407,0.00442505,-0.0193787,0.0192261,-0.00198364,0.222778,0.0157166,-0.0196838,0.00579834,-0.0367737
407,-0.00366211,0.0152588,0.0296021,0.000610352,0.0706482,0.00106812,-0.0154114,0.0741577,0.0132751
407,0.025177,0.0123596,0.0213623,0.0154114,-0.0811768,0.00854492,-0.0125122,0.0271606,-0.0193787
407,-0.00488281,-0.000610352,0.0506592,0.0132751,-0.0878906,-0.00564575,-0.0242615,0.0442505,-0.00289917
407,0.000305176,0.00762939,0.0169373,-0.00656128,0.0668335,0.00930786,-0.0050354,0.0398254,-0.0370789
407,-0.00152588,0.000305176,0.027771,-0.00457764,0.118103,0.00579834,0.00610352,-0.0157166,-0.0190735
407,-0.0038147,0.020752,0.0401306,-0.0050354,0.132446,0.0215149,-0.00747681,0.0523376,-0.0212097
407,-0.00167847,0.00656128,0.0338745,0.0212097,0.0466919,-0.0228882,0.0387573,-0.0158691,-0.0273132
407,0.0363159,0.0439453,0.055542,0.000915527,-0.127258,0.0161743,0.0238037,-0.00137329,0.0062561
407,0.0172424,0.00991821,0.0340271,0.0465393,-0.132904,-0.00198364,0.0309753,-0.00564575,-0.0314331
408,0.0088501,0.0187683,0.0430298,0.0193787,-0.245209,0.0331116,0.0141907,0.0161743,0.00106812
408,-0.00289917,-0.00595093,0.0447083,0.0140381,-0.361176,-0.0114441,0.0227356,-0.00717163,0.0125122
408,-0.00671387,0.0120544,0.0247192,0.0187683,-0.318146,-0.00457764,-0.00305176,0.000762939,0.00518799
408,0.00808716,0.00701904,0.0259399,0.0306702,-0.0723267,0.00640869,-0.0111389,0.0180054,-0.0349426
408,0.00488281,0.0175476,0.038147,0.0219727,0.271912,-0.0117493,-0.042572,0.0349426,-0.0160217
408,0.0125122,0.000305176,0.0421143,0.0102234,0.278778,0.0227356,-0.0242615,0.0497437,-0.00427246
408,0.0149536,0.0263977,0.0460815,0.0170898,0.187225,0.0187683,0.0175476,0.0164795,0.00305176
408,0.00946045,0.0149536,0.0587463,0.032959,0.253754,0.0247192,0.0164795,0.0111389,0.00869751
408,0.0161743,0.0111389,0.035553,0.0125122,0.108948,0.0196838,0.0286865,-0.032959,-0.0254822
408,0.00900269,0.0274658,0.0621033,0.0138855,-0.043335,0.017395,0.0280762,-0.000152588,0.00549316
409,0.00106812,0.00244141,0.0344849,0.0320435,-0.101318,0.00289917,0.0282288,-0.0178528,-0.0108337
409,0.00701904,0.0332642,0.0338745,0.00473022,-0.132141,0.0233459,0.0393677,-0.0245667,0.0205994
409,0.0204468,0.0244141,0.037384,0.00823975,-0.133514,0.00854492,0.0108337,-0.0112915,-0.0112915
409,0.00244141,0.0178528,0.0552368,0.00213623,-0.102081,0.0184631,0.0198364,-0.0231934,0.0062561
409,0.0241089,0.00839233,0.06073,0.019989,0.111084,0.0288391,-0.00213623,0.000457764,0.0151062
409,-0.00137329,0.0352478,0.0744629,0.0241089,0.338745,-0.0038147,0.0183105,0.00350952,0.0012207
409,0.0163269,0.0408936,0.0611877,0.00946045,0.346375,0.00732422,0.000152588,0.0105286,0.00762939
409,0.019989,0.0126648,0.057373,0.0259399,0.27359,0.00854492,0.0276184,-0.012207,-0.0138855
409,0.000457764,0.00869751,0.0456238,0.00930786,0.135956,0.0201416,0.0012207,0.00274658,-0.00946045
409,-0.00137329,0.0343323,0.0427246,0.0111389,0.104523,-0.012207,0.0167847,-0.0164795,-0.00198364
410,-0.0125122,0.0115967,0.0480652,0.00137329,0.150146,-0.0137329,0.000610352,0.0201416,0.0267029
410,0.00396729,-0.00350952,0.0262451,0.00350952,0.0854492,-0.00320435,-0.00335693,0.0283813,0.00732422
410,0.0050354,0.00442505,0.052948,0.0135803,-0.0479126,0.00946045,-0.00656128,-0.0109863,0.0288391
410,0.0489807,0.00564575,0.0202942,0.0138855,0.0314331,0.0137329,0.00152588,-0.00366211,0.0326538
410,0.0132751,0.00946045,0.0636292,0.0263977,0.0332642,-0.000305176,0.0350952,-0.00427246,0.030365
410,0.0210571,0.00320435,0.0201416,0.0193787,0.0335693,0.00930786,0.0338745,0.0221252,0.0424194
410,0.0135803,0.00167847,0.00747681,0.0117493,-0.00350952,-0.0175476,0.0248718,-0.0135803,0.0296021
410,0.0201416,-0.00900269,0.0163269,0.00854492,-0.0460815,-0.00274658,-0.00564575,0.0135803,0.0404358
410,0.00854492,-0.00411987,0.019989,0.0135803,-0.0849915,-0.00213623,0.017395,-0.0062561,0.000762939
410,0.012207,0.00488281,0.0241089,-0.0192261,-0.206451,0.000457764,-0.00396729,0.030365,0.0338745
411,0.0274658,-0.00854492,0.0311279,0.0228882,-0.280457,0.0012207,0.0172424,0.0163269,0.0242615
411,0.0236511,0.00228882,0.0196838,0.0140381,-0.339508,-0.00167847,0.0231934,0.0102234,0.0715637
411,0.0491333,0.0160217,0.017395,0.0112915,-0.342712,0.00762939,0.0346375,0.0233459,0.0456238
411,0.0230408,0.0192261,0.0282288,0.0186157,-0.261383,0.00137329,0.0209045,0.0204468,0.0213623
411,0.0131226,0.0115967,0.0341797,0.0242615,-0.0357056,0.00442505,-0.0161743,0.0349426,0.037384
411,0.0123596,-0.00747681,0.00869751,-0.000152588,-0.0106812,-0.00305176,0.0180054,0.0192261,0.00579834
411,0.0253296,-0.00793457,-0.012207,0.0119019,-0.0611877,-0.00183105,0.0201416,0.0271606,0.059967
411,0.0289917,0.00259399,0.000762939,-0.0108337,-0.0888062,0.00534058,0.0111389,0.000610352,0.0180054
411,0.020752,0.027771,0.017395,0.01297,-0.13382,0.0209045,0.0149536,0.0201416,0.0462341
411,0.0413513,0.00564575,0.0227356,0.0318909,-0.137787,0.0212097,0.0436401,0.0332642,0.0308228
412,0.00396729,0.00961304,0.0286865,0.0267029,-0.114441,0.0268555,0.00656128,0.0209045,0.027771
412,0.0283813,-0.00167847,0.00686646,0.0418091,-0.202179,0.0282288,0.014801,0.0212097,0.0132751
412,0.0120544,-0.00762939,0.00106812,0.00900269,-0.188141,0.0357056,0.0375366,0.00396729,0.0592041
412,0.0114441,0.019989,-0.0100708,0.00152588,-0.0489807,0.0382996,0.0135803,0.0292969,0.0392151
412,0.00900269,0.0112915,0.00167847,0.0201416,0.15686,0.00595093,0.0126648,0.0201416,-0.00183105
412,0.0102234,0.00976562,-0.00198364,0.0187683,0.255585,0.0259399,-0.0323486,0.0540161,0.0393677
412,0.0254822,0.0012207,0.0105286,0.0413513,0.345001,0.0157166,0.0100708,0.0100708,0.00244141
412,0.0335693,0.0418091,0.00442505,0.0274658,0.401001,-0.00823975,-0.0149536,0.020752,0.0427246
412,0.0254822,0.0161743,0.00289917,0.0354004,0.229187,0.00137329,0.0186157,0.0315857,0.0138855
412,0.0227356,0.0132751,-0.000457764,0.0323486,0.0505066,-0.0088501,0.0112915,-0.0050354,0.063324
413,0.037384,0.0111389,-0.0219727,0.0204468,-0.0375366,-0.00274658,-0.0105286,-0.00534058,0.0393677
413,0.000152588,0.0038147,0.00244141,0.0453186,-0.0852966,-0.0177002,0.00320435,-0.00473022,0.0527954
413,0.0132751,0.0106812,-0.00930786,0.0286865,-0.0953674,-0.00534058,-0.00793457,0.0195312,0.0151062
413,0.0138855,-0.00152588,-0.0114441,0.0190735,-0.191803,-0.0108337,0.00167847,0.00457764,-0.00732422
413,0.00610352,0.0379944,-0.00396729,0.000305176,-0.171967,0.0140381,0.00396729,0.0369263,0.030365
413,0.0138855,-0.00228882,0.00656128,0.0274658,-0.15976,0.0111389,0.0158691,0.0196838,0.00732422
413,0.032196,0.00473022,-0.0183105,-0.0114441,0.0114441,0.0247192,0.00595093,0.0172424,0.0311279
413,0.0439453,0.0248718,-0.0166321,-0.00701904,-0.0369263,0.00518799,0.0195312,-0.00427246,0.0114441
413,0.0231934,0.0224304,-0.0143433,-0.00106812,-0.0498962,0.0187683,0.0364685,0.0219727,0.0549316
413,0.0180054,0.0311279,-0.00961304,-0.0119019,0.0912476,0.00228882,0.0418091,-0.0228882,0.0326538
414,0.0234985,0.0192261,-0.0154114,-0.0132751,-0.0506592,-0.0289917,0.0366211,0.0132751,0.00946045
414,-0.000915527,0.0286865,-0.0146484,-0.00762939,-0.0790405,-0.0106812,0.0134277,-0.0114441,0.022583
414,0.0108337,0.00457764,-0.0289917,0.0160217,-0.0692749,-0.00976562,0.0213623,-0.00518799,0.0157166
414,0.0389099,0.027771,-0.017395,-0.00183105,-0.0836182,0.0271606,0.00152588,0.0222778,0.0212097
414,0.00808716,0.0134277,0.000305176,0.0114441,0.018158,0.00534058,0.014801,-0.00259399,0.0349426
414,0.037384,0.0338745,-0.00152588,0.0198364,0.225372,0.0430298,-0.00778198,0.0428772,0.0758362
414,0.0325012,0.0180054,-0.0299072,-0.00427246,0.339355,-0.00106812,0.0106812,0.00854492,0.0170898
414,0.0341797,0.0337219,-0.00366211,0.00686646,0.22522,-0.00656128,0.0271606,0.0123596,0.0650024
414,0.0247192,0.00656128,-0.0410461,0.00915527,0.309906,0.0152588,0.0305176,0.00335693,0.0335693
414,0.0221252,0.000762939,-0.0177002,-0.0088501,0.277252,0.0126648,0.0158691,-0.00167847,0.0299072
415,0.0233459,0.00839233,-0.0135803,-0.0184631,0.0639343,-0.00457764,0.00823975,0.00991821,0.0279236
415,0.00686646,0.0149536,-0.00579834,0.0169373,-0.00656128,-0.00106812,0.0292969,-0.00244141,0.0175476
415,0.0411987,0.0231934,-0.0294495,0.0193787,0.0561523,0.0216675,0.0111389,0.00595093,0.0340271
415,0.00640869,0.00473022,-0.0170898,-0.00518799,-0.0502014,0.0300598,0.0340271,-0.00595093,0.0216675
415,0.0292969,0.0387573,-0.0141907,-0.00762939,-0.0848389,0.0271606,0.0257874,0.0112915,0.042572
415,0.0100708,0.00701904,-0.0314331,0.00427246,-0.0382996,0.0111389,0.0315857,-0.0224304,0.00671387
415,0.0216675,0.0154114,-0.0476074,-0.0195312,-0.0392151,0.0038147,0.00854492,0.00457764,0.04776
415,0.0340271,-0.0012207,-0.0309753,-0.0166321,-0.0784302,-0.0344849,-0.00915527,-0.00167847,0.00396729
415,0.0218201,0.0215149,-0.0141907,-0.0198364,-0.0341797,-0.0117493,-0.00900269,0.0114441,0.020752
415,0.0138855,0.0244141,-0.032196,-0.017395,-0.143738,-0.00869751,0.00259399,-0.018158,0.00427246
416,0.0164795,0.0291443,0.00244141,-0.0134277,-0.189056,0.00274658,0.0195312,0.00656128,-0.00259399
416,0.0444031,0.0186157,-0.0300598,0.0164795,-0.189056,-0.00762939,0.0143433,0.0212097,0.00366211
416,0.0213623,0.0247192,-0.0143433,0.00808716,-0.125885,0.010376,0.0209045,0.0163269,0.0338745
416,0.0115967,0.0320435,-0.00259399,-0.00701904,0.0364685,0.0143433,-0.00259399,0.0469971,0.0363159
416,0.0138855,0.00686646,-0.0508118,-0.00274658,-0.0160217,-0.00152588,-0.00366211,0.00549316,0.0274658
416,0.00930786,0.0193787,-0.0393677,-0.00411987,0.0421143,0.027771,-0.0212097,0.0498962,0.0297546
416,-0.00656128,0.0221252,-0.0250244,-0.0144958,0.124817,-0.0012207,0.0210571,-0.00396729,0.00457764
416,0.0288391,0.0193787,-0.0260925,-0.0177002,0.0267029,-0.00350952,-0.0233459,-0.00610352,0.0186157
416,0.0195312,-0.000610352,-0.0280762,0.0115967,0.00274658,0.00854492,0.038147,-0.019989,-0.0169373
416,0.00656128,0.0219727,-0.0088501,-0.00549316,-0.0134277,0.0169373,0.0357056,0.00946045,0.0117493
417,0.0161743,-0.00183105,-0.0192261,0.00396729,0.0447083,0.0105286,0.0308228,0.0134277,0.0196838
417,0.0184631,0.0164795,-0.0140381,-0.018158,0.114594,0.00701904,0.0198364,0.0151062,0.0134277
417,0.025177,0.0102234,-0.0210571,-0.0012207,0.119629,-0.000305176,0.00747681,0.0111389,0.0112915
417,-0.00106812,0.00335693,-0.0286865,0.0201416,0.0811768,-0.0111389,0.020752,-0.0195312,0.00549316
417,0.00869751,0.00442505,-0.0416565,-0.0115967,0.102844,0.00350952,-0.000610352,0.0354004,0.0265503
417,-0.00396729,0.0123596,0.0038147,0.0100708,0.101013,-0.00549316,0.00854492,-0.0201416,-0.00915527
417,-0.00640869,0.00350952,-0.00656128,0.0088501,0.125427,0.0137329,0.0170898,0.022583,0.0215149
417,-0.0105286,-0.00457764,0.0183105,0.00732422,0.16449,-0.0161743,0.0209045,-0.0213623,-0.0291443
417,-0.0125122,0.0196838,0.00366211,0.0163269,0.0164795,0.00701904,0.0239563,0.00823975,0.00411987
417,0.0112915,-0.00335693,-0.00167847,0.00701904,-0.112305,0.0177002,0.0112915,-0.00869751,-0.0195312
418,0.00701904,-0.0038147,-0.0012207,0.00991821,-0.0941467,0.0137329,0.0158691,0.0219727,0.0267029
418,0.0201416,-0.0190735,-0.0222778,-0.0138855,-0.161438,-0.0109863,0,0.0344849,0.00274658
418,-0.0151062,-0.0151062,-0.00717163,-0.00534058,-0.244293,-0.0390625,0.00442505,0.0273132,0.00152588
418,0.0050354,0.00411987,-0.0306702,-0.0109863,-0.242462,-0.0143433,0.0210571,0.030365,0.0144958
418,0.00549316,-0.014801,-0.00579834,0.00198364,-0.176697,-0.00534058,0.0274658,-0.0247192,-0.0325012
418,0.00473022,0.00335693,-0.0248718,-0.0262451,-0.179291,0.00946045,0.0352478,-0.000305176,0.0100708
418,-0.00137329,-0.00305176,-0.00656128,0.00350952,-0.0837708,0.0132751,0.04776,-0.0180054,-0.0338745
418,0.00564575,-0.00732422,0.0102234,-0.0163269,0.117035,0.0125122,0.0337219,-0.0177002,0.00808716
418,0.00274658,0.00534058,0.0302124,0.00335693,0.301056,0.00610352,0.00946045,0.00732422,-0.0100708
418,-0.00106812,0.00244141,0.015564,-0.00869751,0.141144,0.00701904,0.00854492,0.0485229,0.00350952
419,-0.0125122,-0.020752,-0.00762939,-0.0222778,0.0531006,0.0134277,-0.0131226,0.0306702,-0.00900269
419,-0.0138855,-0.0242615,0.00564575,0.00442505,0.0543213,0.0125122,-0.0180054,0.0300598,-0.00244141
419,-0.00167847,-0.0111389,-0.00198364,-0.0190735,-0.0561523,0.0158691,-0.0196838,0.0125122,0.00549316
419,-0.027771,-0.0213623,0.00640869,-0.0238037,-0.191498,0.0112915,0.027771,0.00289917,-0.0271606
419,-0.00656128,-0.00762939,0.0126648,-0.030365,-0.135193,0.0297546,0.0253296,0.042572,0.000457764
419,0.00732422,-0.0131226,0.0201416,-0.0260925,-0.0880432,0.015564,0.0328064,0.00305176,-0.0279236
419,-0.00534058,-0.00854492,0.0224304,-0.0114441,0.0643921,0.0180054,0.0279236,0.0376892,0.0239563
419,0.00793457,-0.0146484,0.00198364,-0.00473022,0.198517,-0.00274658,0.0268555,0.000915527,-0.0170898
419,-0.00564575,0.00350952,0.0271606,-0.0212097,0.118408,0.0379944,-0.00762939,0.0480652,0.0132751
419,-0.012207,-0.0286865,0.0125122,-0.0228882,0.144806,0.0369263,-0.00518799,0.00793457,0.0169373
420,-0.0257874,-0.010376,0.0212097,0.0038147,0.189362,0.0205994,0.0117493,-0.0169373,-0.00198364
420,-0.00976562,-0.00320435,0.0228882,-0.0216675,0.129547,0.0137329,0.00411987,-0.0161743,0.0062561
420,-0.00213623,-0.00610352,0.0379944,-0.00610352,0.0950623,-0.00808716,0.0234985,0.032959,-0.00793457
420,0.0128174,-0.00579834,0.0140381,-0.00244141,0.157623,0.0143433,-0.0062561,0.0146484,0.0105286
420,0.00518799,-0.00320435,0.0288391,-0.0167847,-0.0270081,0.00579834,0.0248718,-0.00411987,-0.0204468
420,-0.00137329,-0.00839233,0.0387573,0.00274658,-0.0717163,0.00549316,0.017395,0.0344849,0.0209045
420,-0.0288391,-0.00656128,0.0242615,-0.0141907,-0.0718689,0.00640869,0.0271606,-0.0227356,-0.0180054
420,-0.0349426,-0.00213623,0.0202942,-0.0367737,-0.13382,0.0280762,0.0343323,0.0378418,0.0186157
420,-0.0038147,-0.0218201,-0.0062561,-0.0195312,-0.0790405,0.000762939,0.0062561,-0.00350952,-0.0242615
420,-0.0325012,-0.00915527,0.0466919,-0.0138855,0.124817,0.00732422,0.00396729,0.0146484,0.00595093
421,-0.0151062,-0.0228882,0.0276184,-0.0146484,0.127716,0.0172424,0.0196838,0.00686646,-0.0169373
421,-0.000915527,0.00137329,0.0476074,-0.0123596,0.00686646,0.0192261,0.0421143,0.00991821,-0.00320435
421,-0.00457764,-0.000457764,0.0630188,-0.00518799,0.00473022,0.0102234,0.0343323,0.00564575,-0.00213623
421,-0.00549316,-0.00198364,0.0489807,0.00289917,0.0227356,-0.00518799,0.0288391,0.00152588,-0.0308228
421,-0.00442505,0.0190735,0.0384521,-0.0105286,0.0888062,0.0186157,0.00686646,0.0259399,0.00839233
421,0.00747681,-0.00717163,0.0376892,0.00595093,0.154572,-0.0332642,0.0434875,-0.0062561,-0.00976562
421,-0.039978,0.00808716,0.0517273,-0.0190735,0.0108337,-0.00366211,0.0234985,0.0233459,-0.00152588
421,-0.0175476,-0.012207,0.0250244,-0.0157166,-0.0325012,-0.00427246,0.0320435,-0.00839233,-0.043335
421,-0.0305176,-0.0158691,0.039978,-0.00793457,-0.0567627,0.00335693,0.0405884,0.0186157,0.0137329
421,-0.0274658,-0.00930786,0.00946045,-0.0108337,-0.0396729,0.0132751,0.0175476,-0.0152588,-0.0166321
422,-0.0257874,-0.00289917,0.0378418,-0.00991821,-0.018158,-0.0128174,0.0308228,0.0456238,-0.0012207
422,-0.00183105,0.00167847,0.0337219,-0.00747681,0.115356,0.0245667,-0.00152588,0.0389099,0.000457764
422,-0.00808716,-0.0108337,0.0372314,0.0112915,-0.0540161,0.00808716,0.0267029,0.0352478,-0.0100708
422,-0.0146484,0.00442505,0.0190735,-0.0125122,-0.196228,0.0236511,0.0192261,0.00869751,-0.0169373
422,-0.0271606,0.00442505,0.0309753,0.0219727,-0.192566,-0.00671387,0.0445557,-0.0164795,-0.0132751
422,0.00366211,0.00106812,0.0126648,-0.00152588,-0.0888062,0.0154114,0.0218201,0.0135803,0.00320435
422,-0.00961304,-0.0062561,0.0186157,0.00320435,-0.0485229,0.00320435,0.0257874,-0.0219727,-0.0315857
422,-0.0100708,-0.00442505,0.0483704,0.0164795,0.00915527,0.0227356,0.0106812,0.00350952,-0.00259399
422,-0.00946045,-0.0178528,0.0485229,0.0260925,0.111389,0.00610352,0.045929,-0.0131226,-0.0144958
422,-0.0231934,0.00518799,0.0421143,0.0196838,0.0848389,-0.0175476,0.0315857,-0.0119019,-0.00717163
423,-0.00671387,-0.00213623,0.043335,0.010376,0.0584412,0.0195312,0.0152588,0.0296021,-0.027771
423,-0.00793457,0.00320435,0.0271606,0.0112915,-0.0224304,-0.0108337,0.0259399,0.038147,-0.0112915
423,-0.00350952,0.0102234,0.0257874,0.00213623,0.00854492,0.0088501,0.00930786,0.0302124,0.00488281
423,-0.0164795,-0.0161743,0.0286865,-0.000762939,0.0856018,-0.00793457,0.00411987,-0.0140381,-0.00213623
423,0.00335693,-0.00976562,0.0105286,-0.0100708,0.0462341,0.0239563,0.00442505,-0.0102234,0.0283813
423,-0.00930786,-0.00518799,0.0312805,0.00411987,0.0285339,-0.00518799,0.015564,-0.0228882,-0.0144958
423,-0.0111389,0.038147,0.0323486,0.00534058,0.0405884,0.00366211,0.00976562,0.00228882,-0.00839233
423,-0.00732422,-0.00656128,0.0259399,0.017395,0.0474548,-0.00457764,0.0192261,-0.0172424,-0.0219727
423,0.00350952,0.0202942,0.0253296,0.0413513,0.0486755,0.0320435,0.00396729,0.0382996,0.0146484
423,0.0291443,-0.00320435,0.0331116,0.0398254,0.0300598,0.0260925,-0.00518799,-0.000915527,-0.0137329
424,-0.00976562,0.0190735,0.0514221,0.0280762,0.0808716,0.0210571,0.010376,0.0338745,0.00350952
424,0.0038147,-0.00518799,0.00274658,0.0221252,0.0439453,0.00869751,0.0114441,0.0131226,-0.000915527
424,-0.0109863,-0.00900269,0.0415039,0.0256348,0.0233459,-0.0184631,0.00411987,0.00289917,0.0376892
424,0.000915527,0.000305176,0.0178528,0.0343323,0.0540161,0.0128174,-0.0164795,0.00518799,-0.0114441
424,-0.0131226,0.012207,0.0247192,0.0254822,0.00137329,0.00869751,0.00335693,0.0245667,0.00457764
424,0.0112915,0.00640869,0.0161743,0.0190735,-0.0521851,-0.00595093,0.00198364,-0.010376,-0.0268555
424,-0.00793457,0.00411987,0.0276184,0.0395203,-0.043335,-0.0134277,-0.0172424,0.0123596,0.0106812
424,-0.000610352,0.00457764,0.03479,0.0389099,-0.112152,-0.0221252,-0.00762939,0.00656128,-0.00534058
424,-0.0106812,0.0158691,0.038147,0.0315857,-0.120544,0.018158,-0.00961304,0.0167847,0.0209045
424,0.0204468,-0.00152588,0.0184631,0.0404358,-0.0645447,0.00244141,-0.00976562,0.00808716,0.00305176
425,0.00167847,0.0201416,0.0337219,0.0411987,-0.00747681,0.00259399,-0.00930786,0.0117493,-0.00595093
425,0.00137329,0.0012207,0.00808716,0.0428772,0.0320435,0.0274658,-0.0128174,-0.0117493,0.0157166
425,0.0038147,0.010376,0.0271606,0.0448608,-0.0314331,0.00152588,-0.00457764,0.0335693,0.00396729
425,0.00106812,0.00167847,0.0447083,0.0671387,-0.00534058,-0.00411987,0.0038147,-0.0131226,0.000457764
425,-0.0012207,0.0111389,0.0320435,0.0871277,0.0332642,0.00640869,0.00640869,0.0341797,0.0325012
425,0.0196838,-0.00274658,0.0286865,0.0654602,0.04776,0.00762939,0.00137329,0,0.000305176
425,-0.00396729,0.00686646,0.0500488,0.0674438,0.0088501,0.00747681,-0.00198364,-0.00427246,-0.00991821
425,0.00106812,-0.0088501,0.00961304,0.0666809,0.0364685,0.00198364,-0.0474548,0.0160217,0.0192261
425,-0.00320435,-0.0138855,0.0216675,0.0524902,-0.0192261,0.00579834,-0.00289917,0.000915527,0.0138855
425,0.00457764,0.0149536,0.017395,0.038147,-0.04776,0.0120544,-0.045929,0.010376,0.0100708
426,-0.0062561,0.00823975,0.0228882,0.0544739,-0.0276184,0.0180054,-0.0468445,0.0131226,0.0152588
426,0.0218201,0.0248718,0.0189209,0.0315857,0.0268555,0.0190735,-0.0311279,0.0502014,0.03479
426,-0.0140381,0.00717163,0.0259399,0.0637817,0.124969,0.00152588,-0.0300598,-0.000152588,0.00961304
426,0.0146484,0.00762939,0.0328064,0.0419617,-0.0424194,0.0204468,-0.0131226,0.00488281,0.0331116
426,0.014801,0.0260925,0.00808716,0.0640869,-0.234528,0.0146484,-0.00366211,-0.0273132,0.0062561
426,0.00930786,0.0177002,0.0231934,0.0602722,-0.261993,0.0201416,0.0062561,-0.00686646,0.0143433
426,0.00686646,-0.00961304,-0.00564575,0.0813293,-0.139465,-0.0143433,-0.0100708,0.0192261,0.0183105
426,-0.00549316,0.0247192,0.0183105,0.0627136,-0.00518799,-0.00839233,0.0239563,0.00183105,0.0346375
426,-0.0106812,-0.00137329,-0.000762939,0.0540161,0.110931,0.00762939,-0.0163269,0.0115967,-0.00778198
426,-0.0132751,0.0253296,-0.000610352,0.0482178,0.148468,-0.00564575,0.00656128,0.0167847,0.0289917
427,0.030365,0.0219727,0.0210571,0.0512695,0.127106,0.0114441,-0.022583,0.0315857,0.0131226
427,0.0196838,-0.00488281,0.0404358,0.0431824,-0.0737,0.0267029,-0.0115967,0.0231934,0.0308228
427,0.0244141,0.0189209,0.0012207,0.0369263,-0.0363159,0.00289917,0.0062561,0.0575256,0.0352478
427,0.0180054,0.00579834,0.0062561,0.0469971,-0.0517273,-0.00274658,0.0209045,0.00778198,0.0198364
427,0.00183105,0.00564575,-0.00823975,0.0495911,-0.0730896,0.0234985,0.000457764,0.0289917,0.0523376
427,0.0100708,-0.00259399,0.00946045,0.10376,0.0453186,-0.00671387,0.00778198,-0.000305176,0.00762939
427,0.0120544,0.0137329,0.0320435,0.0682068,0.181732,-0.0117493,-0.010376,0.0323486,0.025177
427,-0.00473022,-0.0088501,0.0183105,0.037384,0.167389,0.0100708,-0.00457764,-0.0178528,-0.0123596
427,-0.0154114,0.00320435,0.00839233,0.0440979,0.0917053,0.0138855,0.0326538,0.0163269,0.0392151
427,0.0256348,0.0315857,0.0106812,0.0415039,0.0959778,-0.00457764,0.0267029,-0.020752,0.0167847
428,0.0112915,0.0205994,0.0218201,0.0244141,0.130768,0.0547791,0.00900269,0.0169373,0.0549316
428,0.00244141,-0.00564575,0.0178528,0.062561,0.152588,0.0227356,-0.0210571,-0.000610352,0.0308228
428,0.00976562,0.0288391,0.0221252,0.0375366,-0.000762939,0.0146484,0.0158691,0.0166321,0.0465393
428,0.00610352,0.00808716,0.0254822,0.071106,-0.087738,0.000152588,0.0260925,-0.0157166,0.0286865
428,0.0354004,0.0296021,0.010376,0.0437927,-0.119019,0.0224304,-0.00946045,0.0384521,0.0595093
428,0.0271606,0.015564,0.00595093,0.0431824,-0.0473022,0.00839233,0.0180054,-0.00366211,0.0152588
428,0.0344849,0.0349426,0.0444031,0.0439453,-0.0541687,0.00778198,-0.0228882,0.0268555,0.0384521
428,0.0213623,0.0273132,0.0198364,0.04776,-0.0193787,0.0100708,-0.020752,-0.00656128,0.017395
428,0.00793457,0.0215149,0.0340271,0.0402832,0.0759888,0.0050354,0.0279236,0.0390625,0.0559998
428,0.0253296,0.0213623,0.0192261,0.0442505,0.116272,0.0212097,0.0428772,-0.0209045,0.0231934
429,0.00320435,0.0247192,0.0163269,0.00183105,0.12085,0.0238037,0.014801,0.0215149,0.0395203
429,-0.00595093,-0.010376,-0.00289917,0.00335693,0.148773,-0.0183105,0.027771,0.0135803,0.0483704
429,-0.0325012,0.0106812,0.00366211,-0.0299072,0.109863,-0.00823975,0.0114441,0.0123596,0.0506592
429,0.0175476,0.0123596,0.00213623,-0.0204468,0.0401306,-0.00747681,-0.000610352,-0.00595093,0.00610352
429,0.00869751,0.00244141,0.0202942,0.00549316,-0.0157166,0.00442505,-0.018158,0.0488281,0.0479126
429,0.0344849,0.00427246,-0.0038147,0.0137329,-0.0650024,0.00671387,0.0149536,-0.0128174,0.0302124
429,0.0489807,0.0190735,-0.000152588,0.0262451,-0.0839233,0.00610352,0.0260925,0.0169373,0.0100708
429,0.0354004,0.0315857,0.0183105,0.00854492,-0.0898743,0.00442505,0.0410461,0.0012207,0.019989
429,0.0305176,0.0405884,0.0164795,-0.0144958,-0.0857544,0.0286865,0.00686646,0.0126648,0.0485229
429,0.0267029,0.0289917,0.0344849,0.0152588,-0.0665283,0.0105286,-0.0172424,-0.0149536,-0.00579834
430,0.0257874,0.0256348,0.0343323,0.014801,0.0801086,0.0300598,-0.0166321,0.0489807,0.0497437
430,-0.0102234,0.0117493,0.0205994,0.071106,0.148926,0.00778198,0.0337219,-0.00686646,0.0259399
430,0.00534058,0.0234985,-0.00335693,0.0483704,0.1474,0.0106812,0.0189209,0.0291443,0.0404358
430,0.0222778,0.0195312,0.035553,0.043335,0.0920105,0.0088501,0.0491333,-0.00106812,0.0178528
430,0.0119019,0.0195312,0.0160217,0.042572,0.0259399,-0.00259399,0.0552368,0.030365,0.0415039
430,0.014801,-0.0170898,0.00656128,0.0137329,-0.00335693,0.0195312,0.0512695,-0.00366211,0.00961304
430,0.00717163,0.0125122,0.00915527,0.0282288,-0.0241089,-0.000610352,0.0228882,0.0152588,0.0198364
430,-0.0126648,0.000610352,0.000305176,0.0698853,-0.000762939,-0.020752,0.0471497,-0.00488281,0.0115967
430,0.0111389,0.000457764,0.00137329,0.0392151,-0.0343323,-0.00610352,0.0489807,0.00610352,0.00640869
430,-0.0062561,-0.00671387,0.0247192,0.0579834,-0.0543213,-0.0189209,0.0350952,-0.0332642,0.0131226
431,0.0132751,0.00427246,-0.00320435,-0.00488281,-0.000152588,0.00747681,-0.00488281,0.00473022,0.0160217
431,0.00701904,0.00137329,0.00564575,-0.0115967,-0.0140381,0.0167847,0.0331116,-0.0241089,0.0167847
431,0.00289917,0.0419617,0.0050354,-0.0279236,-0.00320435,0.0250244,-0.00564575,-0.020752,0.017395
431,-0.0187683,0.00610352,0.00839233,0.0465393,-0.00656128,-0.00930786,-0.0775146,-0.0282288,0.00213623
431,-0.000305176,0.0210571,0.00137329,0.0366211,-0.0190735,0.00549316,-0.0300598,-0.012207,0.0163269
431,-0.00640869,-0.0215149,0.000610352,0.0244141,-0.0692749,-0.0100708,0.0109863,-0.0163269,0.0109863
431,0.0141907,0.0167847,0.0250244,-0.0387573,-0.0361633,0.00640869,-0.0276184,0.0210571,0.0262451
431,0.00808716,0.0132751,0.00854492,0.00549316,0.00518799,-0.000610352,-0.020752,0.0209045,0.00793457
431,0.0276184,0.0189209,0.00244141,0.00793457,-0.0117493,0.00946045,-0.0172424,0.017395,0.0280762
431,-0.0160217,0.0164795,0.0180054,0.0126648,-0.0502014,0.0123596,0.0308228,-0.00579834,-0.00106812
432,0.042572,0.0430298,0.0262451,0.00442505,-0.0138855,0.0509644,0.038147,-0.000152588,0.020752
432,0.00839233,0.0102234,0.0593567,-0.00152588,-0.0265503,0.00808716,0.0437927,-0.0244141,0.00686646
432,0.0160217,0.0457764,0.0540161,0.0161743,0.00732422,0.0105286,0.0527954,0.0308228,0.00793457
432,0.0126648,0.0106812,0.0447083,0.0250244,-0.0177002,0.0143433,0.0488281,0.0170898,-0.010376
432,0.0135803,0.00732422,0.0393677,0.0114441,0.0375366,0.0398254,-0.00106812,0.0447083,0.00961304
432,-0.0202942,-0.00518799,0.0367737,0.0502014,0.0779724,-0.00228882,0.01297,0.0448608,-0.0146484
432,0.00656128,0.0125122,0.0137329,0.0279236,0.0456238,0.00518799,-0.0222778,0.0666809,-0.0144958
432,0.0111389,0.00167847,0.00564575,0.0390625,0.0350952,-0.0100708,-0.0386047,0.00946045,-0.018158
432,0.00427246,0.0180054,0.0326538,0.0430298,0.0183105,-0.00686646,0.000610352,0.0196838,0.0144958
432,0.00976562,0.0088501,-0.0115967,0.0279236,-0.017395,0.00991821,-0.0050354,0.0279236,-0.0187683
433,0.0318909,0.0253296,0.00976562,-0.00274658,0.0282288,0.0202942,0.0120544,0.0106812,0.0105286
433,0.0239563,0.00976562,-0.0234985,-0.000915527,0.0440979,0.00762939,0.0437927,0.0134277,-0.0178528
433,-0.000762939,0.00839233,-0.0234985,0.00305176,0.0422668,0.00411987,0.0692749,0.00839233,0.0161743
433,-0.0224304,0.0276184,-0.043335,-0.0588989,0.0427246,0.0183105,0.0267029,0.0170898,0.00335693
433,-0.00976562,0.0299072,-0.0271606,-0.0143433,0.0361633,0.0117493,0.0265503,0.00808716,-0.00167847
433,-0.00274658,0.0212097,-0.0296021,0.0224304,0.0402832,0.00274658,-0.0390625,0.00442505,0.00183105
433,0.00595093,0.0221252,-0.0340271,0.055542,-0.00534058,0.00213623,-0.0151062,-0.00579834,-0.0178528
433,0.0177002,0.0300598,-0.0137329,0.0721741,-0.0721741,0.0210571,-0.0447083,0.00549316,-0.00274658
433,0.00656128,0.0151062,-0.0149536,0.0382996,-0.0997925,0.00930786,-0.0343323,-0.0189209,-0.0187683
433,0.00671387,0.0282288,-0.0108337,0.0140381,-0.0686646,0.0160217,-0.0088501,0.0468445,0.0131226
434,0.0120544,0.0192261,0.0234985,0.0274658,0.0143433,0.0109863,-0.0143433,-0.00976562,0.00198364
434,-0.00610352,0.0241089,0.0340271,-0.0123596,0.0296021,0.0157166,-0.0105286,-0.00213623,0.0189209
434,0.0166321,0.0141907,0.00320435,0.0062561,0.0672913,0.00320435,-0.0088501,-0.00701904,-0.00610352
434,0.01297,0.0209045,0.00350952,-0.0213623,0.162506,-0.00793457,0.0248718,-0.00534058,0.00473022
434,0.0088501,0.0158691,0.00778198,-0.00305176,0.135956,0.0228882,-0.000762939,0.039978,-0.00564575
434,0.000610352,0.0283813,0.00198364,0.0088501,0.0282288,-0.0279236,0.00167847,0.0210571,-0.00488281
434,0.0184631,0.0135803,0.0062561,-0.0343323,-0.0494385,0.0177002,0.00823975,0.0242615,-0.0152588
434,0.0143433,0.00717163,0.00366211,-0.0387573,-0.0668335,0.00808716,0.038147,-0.00534058,-0.00717163
434,0.0328064,0.0123596,0.00549316,-0.0233459,-0.0471497,0.0378418,0.0267029,0.0126648,0.0178528
434,0.0276184,0.00350952,0.00473022,-0.0265503,-0.0500488,-0.0143433,0.0466919,0.00137329,0.000610352
435,-0.00701904,0.012207,0.0274658,-0.0102234,-0.0378418,-0.00717163,0.0363159,0.037384,-0.00411987
435,-0.00259399,-0.0109863,0.0128174,0.0050354,-0.0119019,0.000610352,0.0288391,-0.00808716,0.0186157
435,-0.00411987,0.00869751,0.00701904,0.0262451,0.000457764,0.0218201,0.0236511,0.0141907,0.0202942
435,0.00152588,-0.0012207,-0.0134277,0.0376892,-0.00106812,0.00762939,0.00457764,0.00442505,-0.022583
435,-0.0166321,-0.0088501,0.000915527,0.00671387,-0.00915527,0.015564,0.0231934,-0.0128174,-0.0128174
435,0.00762939,-0.00762939,0.0144958,0.0637817,0.0354004,0.0169373,0.0267029,-0.00198364,-0.00610352
435,0.00106812,0.00518799,-0.000305176,0.065155,0.0416565,0.00839233,0.0416565,-0.0146484,0.00442505
435,0.0238037,0.0431824,-0.0132751,0.0205994,0.0274658,0.00732422,0.0114441,0.0297546,0.0102234
435,-0.00701904,0.00869751,-0.0294495,0.0260925,-0.0358582,0.0137329,0.030365,-0.0180054,0.00595093
435,0.00518799,0.00732422,-0.0341797,-0.0265503,-0.149384,0.0247192,0.0361633,-0.0126648,-0.00106812
436,-0.00427246,-0.00274658,-0.00900269,0.0166321,-0.144043,-0.012207,0.0337219,-0.0158691,0.0112915
436,-0.00167847,0.00976562,-0.0189209,-0.010376,-0.169067,-0.0112915,0.0267029,0.00366211,0.0135803
436,-0.00579834,0.00930786,-0.00579834,0.0740051,-0.0724792,-0.0105286,0.00213623,0.00213623,-0.0256348
436,-0.00183105,0.00579834,0.0117493,0.0767517,0.108032,-0.0201416,-0.00656128,0.0239563,0.0195312
436,0.0158691,0.0187683,0.00717163,0.0559998,0.186615,-0.00534058,0.00869751,-0.00595093,-0.0242615
436,0.00640869,-0.0050354,0.012207,0.0126648,0.0941467,0.00656128,0.0410461,0.0149536,0.0117493
436,0.0234985,0.000457764,0.0157166,-0.0382996,-0.0120544,0.0169373,0.0279236,0.0338745,-0.00335693
436,-0.000152588,0.0198364,0.0440979,-0.0785828,-0.100708,-0.00366211,0.01297,-0.0177002,-0.00289917
436,-0.00549316,0.00915527,0.0376892,-0.104065,-0.0921631,0.00396729,0.00244141,-0.00640869,0.0363159
436,-0.0131226,-0.00427246,0.0398254,-0.0231934,-0.019989,0.015564,-0.00305176,-0.0224304,-0.0193787
437,0.00946045,0.0062561,0.0152588,0.0212097,0.0724792,0.0187683,-0.0634766,0.00930786,0.00900269
437,0.00976562,-0.0088501,0.0190735,0.0996399,0.298004,-0.00213623,-0.0518799,-0.00564575,-0.0175476
437,0,0.0216675,-0.00213623,-0.0186157,0.355377,0.0236511,-0.0088501,0.022583,0.019989
437,0.0131226,0.0259399,-0.0138855,-0.019989,0.151215,0.0366211,0.0285339,-0.0202942,0.0140381
437,0.0161743,0.0485229,-0.0175476,-0.00473022,0.0161743,0.00411987,0.0498962,0.0267029,0.017395
437,0.0137329,0.0234985,-0.0111389,0.0869751,-0.0354004,0.0105286,0.0578308,0.0653076,0.022583
437,-0.00259399,0.00610352,-0.0134277,0.085144,-0.0630188,-0.0038147,0.0483704,0.00961304,0.00411987
437,-0.000305176,-0.0143433,-0.0596619,0.0151062,-0.0839233,0.00198364,0.0212097,0.0535583,0.017395
437,-0.0193787,-0.0137329,-0.0575256,0.00228882,-0.147705,0.0038147,-0.0149536,0.0233459,0.0283813
437,-0.0120544,0.0100708,-0.0610352,-0.0405884,-0.0814819,-0.0190735,-0.0250244,0.0332642,0.022583
438,-0.0149536,0.0193787,-0.0578308,-0.0570679,-0.144196,-0.0117493,0.00534058,0.00595093,0.0050354
438,0.0125122,0.0390625,-0.0341797,-0.0354004,-0.058136,0.00854492,-0.0395203,0.0244141,0.0215149
438,0.0062561,0.0363159,-0.0253296,-0.0512695,0.0256348,0.0126648,0.00335693,-0.0294495,-0.000152588
438,0.00228882,0.0524902,0.0202942,-0.0808716,0.123596,0.0279236,0.0231934,0.0276184,0.032959
438,0.0151062,0.0222778,0.0222778,-0.0669861,0.198364,0.0204468,-0.000457764,-0.00366211,-0.000152588
438,-0.0143433,0.00930786,0.0331116,-0.0631714,0.143433,0.0430298,0.00106812,0.0437927,0.0437927
438,0.00656128,0.0227356,0.00915527,-0.03479,0.0288391,-0.00183105,0.0088501,0.0382996,0.0209045
438,0.00106812,0.00198364,0.0227356,-0.00244141,-0.0791931,-0.0195312,0.0143433,0.0135803,0.0267029
438,0.00106812,0.00732422,0.0183105,0,0.0289917,0.00900269,0.0430298,0.0364685,0.0317383
438,-0.0126648,0.000305176,0.0218201,0.0486755,0.0236511,-0.00686646,0.0524902,-0.00976562,0.0117493
439,0.0183105,0.0338745,0.0268555,0.0119019,0.168152,0.0184631,0.0289917,0.0212097,0.0393677
439,0.0123596,0.0274658,0.0444031,0.0115967,0.228424,0.00595093,0.0715637,-0.0593567,0.0164795
439,-0.000152588,0.0205994,0.00762939,0.0050354,0.00762939,0.017395,0.0422668,-0.00961304,0.0465393
439,0.00823975,0.020752,-0.00320435,0.00747681,-0.0460815,-0.00869751,0.0186157,-0.0123596,0.00671387
439,-0.0172424,0.017395,0.0119019,0.0349426,0.0372314,-0.0270081,0.0050354,0.0364685,0.0350952
439,-0.00518799,-0.0369263,0.0163269,0.0260925,0.0440979,0.0238037,0.0564575,0.0405884,-0.000762939
439,-0.0120544,0.0158691,0.0285339,-0.0421143,0.0579834,0.0198364,0.0640869,0.0393677,0.0158691
439,0.00717163,-0.00350952,0.0125122,-0.0579834,0.0250244,-0.000915527,0.0430298,0.0062561,0.000305176
439,-0.00518799,0.01297,0.0274658,-0.0311279,-0.022583,0.0114441,-0.0338745,0.0393677,0.0167847
439,-0.0126648,0.00488281,-0.0038147,-0.0378418,-0.0613403,0.01297,-0.0718689,0.0250244,-0.019989
440,0.00534058,0.0334167,-0.0114441,-0.0587463,-0.114594,0.00152588,-0.0376892,0.0198364,0.00976562
440,0.00854492,0.01297,0.0219727,-0.0328064,-0.0979614,0.000610352,-0.01297,-0.0294495,0.0128174
440,0.00732422,0.00915527,0.0419617,-0.0164795,-0.0906372,0.0119019,0.00915527,-0.0105286,0.0254822
440,-0.0105286,0.00686646,0.0038147,-0.0205994,-0.0747681,0.0146484,0.0254822,-0.00518799,-0.00686646
440,0.0169373,0.0205994,0.00579834,-0.0305176,-0.0502014,0.0167847,0.0309753,0.0305176,0.0230408
440,0.0050354,0.00778198,0.0292969,0.0154114,-0.0233459,0.0131226,0.0062561,0.0292969,0.000305176
440,0.00839233,-0.00442505,0.0241089,0.00473022,-0.0358582,0.0267029,0.0273132,0.0125122,0.0349426
440,0.0038147,-0.0161743,0.0102234,0.020752,-0.0497437,0.017395,0.0222778,0.0273132,-0.00976562
440,0.00686646,0.0169373,-0.00167847,-0.00106812,0.017395,0.00732422,0.0210571,0.0267029,0.0354004
440,0.00991821,0.0216675,-0.0137329,-0.0311279,0.0881958,0.027771,0.0473022,-0.0109863,0.00640869
441,-0.00305176,0.032196,-0.00244141,-0.0367737,0.119781,-0.00274658,0.0526428,0.0286865,0.0157166
441,0.00976562,0.0418091,-0.0305176,-0.0289917,0.122223,0.0105286,0.00808716,0.0152588,0.0114441
441,0.0012207,0.0128174,-0.0267029,-0.00701904,0.0637817,0.00198364,0.0123596,-0.0416565,0.00350952
441,0.0167847,0.0375366,-0.00900269,-0.0335693,-0.0234985,0.0210571,0.0234985,-0.0038147,0.00900269
441,0.00686646,0.0296021,-0.0163269,-0.0317383,-0.158539,0.00213623,0.065155,-0.0289917,0.00671387
441,0.0172424,0.0338745,-0.00549316,-0.027771,-0.271912,0.000762939,0.0366211,-0.00823975,0.0350952
441,-0.000610352,0.0050354,-0.0163269,-0.0265503,-0.251312,-0.00686646,0.0288391,0.0115967,0.0175476
441,0.00839233,0.0390625,-0.000305176,-0.0297546,-0.065918,0.00732422,0.00274658,0.0369263,0.00762939
441,-0.0120544,0.0151062,-0.030365,-0.0102234,0.0576782,-0.012207,-0.0152588,0.0318909,-0.012207
441,-0.01297,0.0164795,-0.0152588,-0.0808716,-0.055542,0.0167847,0.00228882,0.0352478,0.00549316
442,-0.0117493,0.00747681,-0.00976562,-0.106506,-0.0276184,-0.0163269,0.0218201,0.0112915,-0.00976562
442,-0.00518799,0.0260925,0.0038147,-0.113373,-0.00274658,-0.0123596,0.0219727,0.0286865,0.0242615
442,0.0187683,0.00839233,-0.0511169,-0.0869751,-0.0971985,-0.00686646,0.0331116,-0.00427246,0.00183105
442,-0.000305176,-0.00854492,-0.0279236,-0.0747681,-0.052948,0.00839233,0.0592041,0.0149536,0.00411987
442,0.0248718,-0.017395,-0.0672913,-0.083313,0.149078,0.00976562,0.0114441,0.045166,0.0111389
442,0.0297546,0.00335693,-0.0469971,-0.0743103,0.153503,0.00274658,0.0260925,0.0283813,0.0131226
442,0.00595093,-0.00640869,-0.0819397,-0.0637817,0.216675,0.022583,-0.00305176,0.0198364,0.0256348
442,0.00640869,-0.00213623,-0.08255,-0.0241089,0.43808,-0.00778198,-0.00610352,0.0218201,-0.00671387
442,0.00564575,0.0190735,-0.0804138,-0.0569153,0.22934,0.0154114,0.00595093,0.0338745,0.0218201
442,-0.00274658,0.0267029,-0.0506592,-0.0579834,0.0366211,-0.000915527,0.0178528,-0.0212097,-0.00976562
443,-0.0102234,0.037384,-0.0137329,-0.0802612,-0.08255,0.0038147,0.0112915,0.0183105,0.0186157
443,0.0109863,0.0349426,-0.00732422,-0.0379944,-0.13504,-0.000152588,0.022583,0.00640869,-0.0012207
443,0.00411987,0.0471497,0.0292969,0.00518799,-0.180664,-0.00167847,-0.0230408,0.0427246,0.0151062
443,0.00839233,0.0404358,0.042572,-0.00427246,-0.142822,0.0253296,0.00534058,0.0111389,0.0102234
443,0.000457764,0.0320435,0.0332642,-0.0088501,-0.0367737,0.00610352,0.0552368,-0.0198364,0.00152588
443,0.00747681,0.0204468,0.0434875,-0.0363159,0.00762939,0.0228882,0.0157166,-0.0132751,0.0201416
443,-0.0143433,-0.0038147,0.0454712,0.00579834,-0.105896,0.0154114,0.0354004,-0.0325012,0.0140381
443,0.00167847,-0.00686646,0.0335693,-0.0144958,-0.104675,0.00762939,0.00701904,0.0315857,0.0439453
443,-0.00320435,-0.00396729,0.0183105,-0.0318909,0.0100708,-0.00305176,-0.0114441,0.0128174,-0.0210571
443,0.00549316,0.0247192,0.0602722,-0.0741577,0.0108337,0.00473022,-0.0534058,0.0308228,0.0141907
444,0.0111389,-0.0135803,0.0291443,-0.130615,0.0236511,0.0164795,-0.0242615,0.035553,-0.0112915
444,0.0196838,0.0212097,0.0430298,-0.1474,0.219879,0.0276184,-0.0209045,0.0114441,-0.00335693
444,0.0320435,0.00656128,0.0387573,-0.122833,0.137024,0.0152588,0.00320435,-0.0132751,-0.0117493
444,0.00244141,-0.0271606,0.0305176,-0.0987244,0.0697327,0.00640869,0.0326538,0.0233459,0.0167847
444,0.0205994,-0.0108337,0.0285339,-0.10376,0.0747681,0.01297,0.00518799,0.00320435,0.0144958
444,-0.000915527,-0.00778198,0.0532532,-0.0622559,-0.0698853,-0.00488281,0.0233459,-0.0224304,0.00701904
444,-0.000152588,-0.0178528,0.0427246,0.0221252,-0.20401,0.00442505,-0.00930786,-0.00457764,-0.0305176
444,0.0131226,-0.0526428,0.0401306,0.0865173,-0.171204,-0.0115967,-0.0158691,-0.0289917,0.00671387
444,0.0166321,-0.0341797,0.0656128,0.0537109,-0.0978088,-0.0189209,-0.0126648,0.0250244,0.0302124
444,0.0112915,-0.0427246,0.0701904,0.0830078,0.071106,-0.0105286,-0.0062561,-0.0132751,-0.00198364
445,0.022583,-0.0239563,0.092926,0.0624084,-0.0823975,0.0178528,0.0144958,0.0198364,0.0338745
445,0.0323486,-0.0170898,0.0427246,0.0404358,-0.100861,0.0276184,0.0349426,-0.0231934,-0.000610352
445,0.042572,-0.00564575,0.0386047,0.0271606,-0.038147,0.0270081,0.0239563,0.0186157,0.0012207
445,0.03479,-0.0221252,0.0358582,0.0379944,-0.0663757,0.00900269,0.0205994,-0.015564,-0.0088501
445,0.00671387,-0.0160217,0.0688171,0.0788879,-0.14328,0.0263977,0.0492859,-0.0187683,0.000915527
445,0.0297546,-0.00946045,0.0654602,0.0895691,0.0224304,0.0341797,0.00213623,0.0138855,0.00167847
445,0.0161743,0.00137329,0.0491333,0.0674438,0.233307,0.00549316,-0.0366211,0.0384521,0.00366211
445,0.0221252,0.0271606,0.0334167,0.0115967,0.0785828,0.030365,-0.00778198,0.00854492,-0.0186157
445,0.0236511,0.0263977,0.0364685,0.0126648,-0.0222778,0.000152588,0.0382996,0.00396729,-0.0387573
445,0.0111389,0.0390625,0.08255,-0.0138855,-0.027771,0.00717163,0.000305176,0.0260925,0.00228882
446,0.0184631,0.0215149,0.0617981,-0.00259399,0.0572205,0.0228882,-0.00549316,0.00274658,-0.0340271
446,0.00930786,0.0119019,0.0456238,-0.0106812,0.0636292,-0.00900269,0.0218201,0.050354,0.0187683
446,0.032196,-0.00106812,0.0387573,-0.0160217,0.134735,0.00228882,0.00473022,-0.00564575,-0.0184631
446,0.00717163,0.0325012,0.0769043,-0.0111389,0.144043,0.00228882,0.0149536,-0.00869751,0.00366211
446,0.0134277,0.0184631,0.0787354,0.0158691,0.14679,0.00350952,-0.00518799,-0.0105286,-0.0205994
446,0.0224304,0.0349426,0.0679016,0.0257874,0.0216675,-0.0144958,0.0320435,-0.0204468,-0.00717163
446,0.0553894,0.0445557,0.085144,0.0341797,0.0238037,-0.0227356,0.0117493,0.00823975,-0.0132751
446,-0.00106812,0.0320435,0.0808716,0.0271606,-0.0408936,0.00289917,0.0346375,-0.00259399,-0.015564
446,0.0247192,0.0392151,0.0636292,0.0201416,-0.032196,0.000762939,0.0245667,0.0502014,0.020752
446,0.0149536,0.0366211,0.0706482,0.0430298,0.146027,0.00274658,-0.00762939,0.0297546,-0.0062561
447,0.0105286,0.00747681,0.0463867,0.0270081,0.280914,0.00274658,0.00900269,0.0654602,0.0146484
447,0.00610352,-0.0125122,0.0143433,0.0344849,0.130005,0.0123596,0.0115967,-0.00366211,-0.00717163
447,0.00671387,0.00991821,-0.00457764,0.0149536,-0.0498962,-0.0062561,0.0259399,-0.00900269,-0.0102234
447,0.0320435,0.0325012,-0.0299072,0.0389099,-0.157928,-0.00579834,0.015564,-0.0115967,-0.0270081
447,-0.00274658,0.0402832,-0.00289917,0.0950623,-0.119019,-0.00213623,0.0337219,-0.00778198,0.0257874
447,0.0177002,0.0379944,-0.0566101,0.11261,-0.155945,-0.00305176,0.0279236,-0.00930786,0.00976562
447,0.00305176,0.0393677,-0.0318909,0.0996399,-0.0923157,-0.00320435,0.0320435,0.000762939,-0.0198364
447,0.00259399,0.0309753,-0.00930786,0.0747681,0.0105286,0.0170898,0.0218201,0.0236511,0.0334167
447,-0.0230408,0.00167847,-0.00183105,0.0811768,-0.0299072,-0.000915527,0.0604248,0.0177002,0.00442505
447,0.00106812,0.0178528,0.00961304,0.0570679,-0.114441,0.0227356,-0.00244141,0.0372314,-0.00610352
448,0.0160217,0.0547791,0.0276184,0.06073,-0.146027,0.022583,0.0386047,-0.0193787,-0.0349426
448,-0.0201416,0.0135803,0.0598145,0.0752258,-0.13092,0.0231934,0.025177,0.0135803,0.0154114
448,0.0205994,-0.0222778,0.0567627,0.0785828,-0.0515747,0.0346375,0.0115967,-0.0189209,-0.0236511
448,0.0386047,-0.0192261,0.0761414,0.0810242,0.225525,0.0192261,0.0204468,-0.000152588,0.00869751
448,0.0343323,-0.035553,0.020752,0.105591,0.424347,0.0283813,-0.000457764,0.0447083,0.00854492
448,0.0135803,-0.0402832,0.00534058,0.105743,0.215149,0.00976562,0.043335,-0.000915527,-0.000457764
448,0.0292969,-0.0146484,-0.00778198,0.0666809,0.0201416,0.00442505,0.0236511,-0.0253296,0.0157166
448,0.0111389,-0.0343323,0.00930786,0.0912476,-0.0114441,0.000610352,0.037384,-0.0175476,-0.00366211
448,0.030365,-0.0140381,-0.0195312,0.0892639,0.000915527,0.00274658,0.0216675,-0.0238037,0.0125122
448,0.018158,0.00305176,-0.0238037,0.0732422,0.0546265,-0.0315857,0.017395,-0.0389099,-0.0137329
449,0.00427246,0.0143433,0.000610352,0.0747681,0.150299,-0.00274658,-0.0180054,0.0305176,0.0198364
449,0.0274658,0.0239563,-0.0152588,0.0886536,0.0837708,-0.00366211,-0.0230408,0.0125122,0.0105286
449,0.0167847,0.0492859,-0.0331116,0.114594,-0.135956,0.0144958,-0.0154114,0.0314331,-0.00549316
449,0.022583,0.0308228,-0.0143433,0.127563,-0.269928,0.00488281,-0.0117493,0.00961304,-0.0228882
449,0.00640869,0.0286865,0.0268555,0.0863647,-0.258026,0.00808716,0.000762939,0.0106812,0.018158
449,0.0184631,0.0215149,0.00274658,0.0152588,-0.246429,0.0132751,-0.0119019,0.00198364,-0.00137329
449,-0.00335693,0.0227356,0.0358582,0.00808716,-0.209656,0.0108337,0.00793457,0.00549316,0.00900269
449,-0.00183105,0.0135803,0.0363159,0.0164795,0.0448608,-0.0123596,-0.0250244,0.0257874,0.0189209
449,-0.0193787,0.00106812,0.0444031,0.0323486,0.0831604,-0.0280762,0.00106812,0.0157166,0.00686646
449,-0.00274658,-0.00137329,0.0367737,0.0178528,0.0863647,0.0172424,-0.00808716,0.038147,0.0436401
