Frame,RF,VL,BF,TA,SOL,GAS_MED,GAS_LAT,GLUT_MED,GLUT_MAX
714,-0.0224304,-0.052948,0.0543213,0.0543213,0.0205994,0.00488281,0.0463867,0.0132751,0.00610352
714,0.00656128,-0.0714111,-0.0221252,0.0439453,-0.000152588,0.00610352,-0.0170898,0.00839233,0.00701904
714,-0.030365,-0.0901794,0.00244141,0.0160217,-0.00656128,-0.00793457,-0.00579834,0.0131226,0.0190735
714,-0.0331116,-0.0669861,-0.0273132,-0.0653076,0.0050354,-0.0140381,-0.0198364,0.00366211,-0.0062561
714,-0.00595093,-0.0520325,-0.00686646,-0.101318,0.0422668,-0.00228882,-0.025177,-0.0149536,0.00228882
714,0.00930786,-0.0648499,0.00274658,-0.151215,0.0111389,0.0253296,-0.0335693,-0.00335693,0.038147
714,0.012207,-0.0749207,-0.0222778,-0.0418091,-0.0125122,0.00320435,0.0291443,0.020752,0.0259399
714,0.0012207,-0.0485229,-0.0367737,-0.00854492,0.0125122,-0.0291443,-0.0138855,-0.00167847,-0.00244141
714,-0.00823975,-0.0157166,-0.042572,-0.0550842,-0.00762939,-0.00549316,-0.00701904,0.00350952,-0.00244141
714,-0.00488281,-0.0253296,-0.00335693,-0.0265503,0.00244141,0.00289917,-0.00289917,-0.0283813,0.0315857
715,-0.0236511,-0.0154114,-0.0187683,0.0224304,0.0213623,0.0131226,0.032959,-0.0228882,-0.0062561
715,-0.0186157,-0.0311279,-0.0492859,0.224457,-0.00137329,0.00701904,-0.0111389,-0.0184631,-0.000305176
715,0.00778198,-0.0312805,-0.0292969,0.284119,-0.0123596,0.00747681,-0.0228882,0.00320435,0.00671387
715,0.00488281,-0.0679016,-0.00411987,0.0392151,0.0257874,-0.00213623,0.0172424,0.0088501,0.0382996
715,0.000610352,-0.0666809,0.0238037,-0.0816345,0.0363159,0.00946045,0.0413513,0.00518799,0.0317383
715,-0.0123596,-0.0578308,0.0239563,0.0837708,0.0143433,-0.00473022,0.0125122,0.012207,0.0192261
715,0.0152588,-0.0570679,0.0430298,0.137787,0.000915527,-0.00808716,0.0257874,0.0163269,-0.00244141
715,0.00289917,-0.114899,0.0532532,0.0132751,-0.00366211,0.0114441,0.0115967,-0.00549316,-0.000762939
715,0.0106812,-0.158691,0.0187683,-0.0440979,0.0193787,0.0135803,-0.00167847,0.0105286,0.0160217
715,0.020752,-0.126953,0.000457764,-0.070343,0.00579834,0.00823975,0.0062561,0.0180054,0.00534058
716,-0.0151062,-0.11673,-0.0134277,0.0363159,0.00244141,-0.0131226,-0.000915527,0.0149536,0.0363159
716,-0.0149536,-0.0564575,-0.0442505,0.153351,-0.00610352,-0.0109863,0.01297,0.00732422,0.0138855
716,-0.000915527,-0.057373,-0.0245667,0.0813293,-0.0227356,0.0149536,-0.00411987,0.00686646,-0.00549316
716,-0.014801,-0.0541687,-0.0100708,-0.0343323,0.00549316,0.0201416,0.0274658,0.00167847,0.0282288
716,-0.027771,-0.0572205,-0.0119019,-0.19577,0.035553,0.0119019,0.0508118,0.0309753,-0.0134277
716,-0.00106812,-0.0302124,-0.00701904,-0.0967407,0.0152588,-0.00671387,0.0315857,0.0393677,0.0106812
716,0.00137329,0.000305176,-0.00930786,-0.0360107,0.0349426,-0.00305176,-0.0126648,0.0645447,-0.00457764
716,0.00915527,-0.0137329,-0.00732422,-0.14801,0.0332642,-0.00213623,-0.018158,0.0274658,0.0271606
716,0.0114441,-0.00595093,-0.0372314,-0.10788,0.0421143,-0.0050354,0.00854492,-0.00915527,0.0184631
716,0.00991821,0.0411987,-0.0447083,0.0979614,-0.00289917,0.0224304,-0.0106812,-0.0337219,-0.00106812
717,0.0143433,0.0267029,-0.050354,0.160522,-0.0183105,-0.00671387,-0.00473022,-0.0473022,-0.00259399
717,-0.00106812,-0.057373,-0.0151062,0.110626,-0.000152588,-0.00228882,-0.0234985,-0.0410461,0.0531006
717,0.00656128,-0.0370789,-0.0331116,-0.0167847,-0.00732422,0.018158,-0.0253296,-0.0144958,0.0268555
717,0.0363159,-0.0247192,0.00564575,0.0198364,-0.0125122,-0.000457764,0.0257874,-0.0141907,0.039978
717,0.0491333,-0.0137329,0.0617981,-0.0413513,0.00579834,-0.00350952,0.00473022,-0.00640869,-0.0183105
717,0.0436401,-0.0209045,0.131378,-0.0921631,0.0114441,0.00518799,-0.00289917,0.0363159,0.0245667
717,0.0364685,-0.00564575,0.140686,-0.16449,0.00198364,0.0172424,0.00350952,0.0265503,0.0236511
717,0.0323486,0.00488281,0.108948,-0.217438,0.0241089,-0.000457764,0.0117493,0.0405884,0.00549316
717,0.014801,0.0131226,0.0146484,-0.264893,0.0146484,0.0100708,0.0111389,0.0234985,-0.00473022
717,0.020752,0.0646973,-0.0120544,-0.263977,-0.0102234,0.0125122,-0.00961304,0.0196838,-0.0234985
718,0.0267029,0.0558472,0.0268555,0.0773621,-0.0123596,0.0149536,-0.00549316,0.00854492,0.0233459
718,0.0253296,0.0886536,0.0233459,0.290375,-0.0131226,0.0221252,-0.00320435,-0.0151062,-0.0286865
718,0.0125122,0.0798035,0.0213623,0.237274,0.017395,0.00839233,0.0231934,0.0254822,0.0163269
718,0.0402832,0.037384,0.00320435,0.241241,-0.0466919,0.00259399,0.00198364,-0.0012207,0.0230408
718,0.0476074,0.0196838,0.03479,0.124054,-0.0245667,0.00717163,-0.00274658,0.00823975,0.000305176
718,0.0119019,0.0410461,0.0436401,0.0968933,-0.00732422,0.0175476,0.0201416,0.00717163,-0.0209045
718,0.00579834,0.0648499,-0.0135803,-0.0845337,0.0282288,-0.00640869,0.0328064,0.0389099,0.00869751
718,0.0143433,0.0756836,-0.0305176,-0.0389099,0.0692749,-0.0119019,0.0392151,0.0286865,0.0265503
718,-0.00213623,0.0785828,-0.0204468,-0.0250244,0.00183105,0.00991821,0.00396729,0.0128174,0.0244141
718,-0.00366211,0.101929,0.0151062,0.0717163,0.0112915,0.00427246,-0.0167847,0.00427246,0.00564575
719,-0.0280762,0.0541687,0.00198364,0.143585,-0.00213623,0.00579834,-0.00732422,-0.00289917,0.0117493
719,-0.00396729,0.0453186,0.0169373,-0.0128174,-0.00839233,0.00762939,0.00228882,-0.0482178,-0.00991821
719,0.0262451,0.0201416,-0.00396729,-0.085907,-0.00549316,-0.000152588,0.0157166,-0.0192261,-0.0213623
719,0.0126648,-0.0151062,-0.0483704,0.0665283,-0.0114441,-0.00198364,0.00579834,-0.0140381,0.0157166
719,0.0143433,0.00305176,-0.0479126,0.11322,0.010376,0.00213623,0.0300598,0.0276184,0.0221252
719,0.0117493,-0.0387573,-0.0306702,0.167847,0.0187683,0.00762939,0.0172424,0.0286865,0.00991821
719,0.0202942,-0.00427246,-0.0163269,0.101471,0.00961304,0.0132751,0.0038147,0.0233459,0.0119019
719,0.0172424,-0.038147,-0.0363159,-0.0535583,0.0212097,-0.00213623,0.0337219,0.01297,0.0183105
719,-0.0117493,-0.108795,-0.0411987,-0.187378,0.0126648,0.0189209,0.0115967,0.0343323,-0.0115967
719,0.0370789,-0.138702,-0.0299072,-0.200348,0.0410461,0.0242615,0.0175476,0.0450134,-0.00152588
720,0.0358582,-0.144653,-0.032959,-0.172882,0.0102234,0.0238037,0.0178528,0.0535583,-0.0144958
720,0.0740051,-0.105438,-0.0109863,-0.075531,0.0228882,0.00411987,0.0274658,0.0195312,0.00167847
720,0.0767517,-0.101471,-0.00427246,0.0878906,-0.012207,0.0126648,0.0143433,0.0106812,-0.00656128
720,0.043335,-0.0730896,0.0408936,0.0666809,0.0454712,0.000457764,-0.0196838,0.0215149,0.00167847
720,0.0442505,-0.0190735,0.068512,0.0901794,-0.0196838,0.0117493,-0.000305176,-0.0175476,-0.0180054
720,-0.00732422,0.0332642,0.0917053,0.00213623,-0.00564575,0.032196,0.0238037,-0.00442505,-0.00579834
720,-0.0241089,-0.00732422,0.108337,-0.0750732,0.0212097,0.00366211,0.0151062,-0.0450134,-0.00244141
720,-0.00930786,-0.0204468,0.0971985,0.119629,-0.00457764,0.0164795,0.0247192,0.0144958,-0.0038147
720,-0.00289917,0.0126648,0.0778198,0.237579,-0.059967,0.0193787,0.0111389,0.0253296,0.0166321
720,-0.00442505,-0.0160217,0.0164795,0.218811,-0.0190735,-0.0177002,0.00854492,0.0221252,-0.0128174
721,-0.012207,-0.00152588,-0.0131226,0.126953,-0.0111389,0.00457764,0.000915527,0.0511169,0.0219727
721,0.00823975,0.00427246,-0.0260925,0.0730896,0.00610352,0.0157166,-0.0224304,0.0431824,0.0163269
721,0.0100708,0.0131226,-0.0550842,-0.0912476,0.012207,0.0114441,-0.00701904,0.0299072,0.0283813
721,0.00991821,-0.0109863,-0.0683594,-0.215607,0.00534058,0.00839233,0.0193787,0.0238037,0.0271606
721,0.0131226,-0.0117493,-0.0790405,-0.119019,0.0450134,-0.0196838,0.0012207,0.0437927,0.058136
721,0.0119019,0.0144958,-0.0531006,-0.15564,0.0291443,0.00152588,0.0140381,0.0224304,0.000915527
721,0.0279236,-0.000305176,-0.00991821,-0.063324,0.00976562,0.0259399,-0.00579834,0.0270081,0.00305176
721,0.0296021,-0.0488281,0.00320435,0.0186157,0.0245667,0.0167847,0.0114441,0.00411987,0.0257874
721,0.0169373,-0.0454712,0.018158,0.210571,-0.0114441,0.00701904,-0.0187683,-0.0302124,0.0149536
721,0.00793457,-0.0479126,-0.00610352,0.335693,0.0134277,0.0205994,0.0157166,-0.0285339,-0.0270081
722,-0.00930786,-0.0204468,0.0283813,0.279388,0.00961304,0.0268555,0.00305176,-0.0227356,0.00549316
722,-0.0344849,-0.00396729,-0.0318909,0.16922,-0.00305176,-0.0088501,0.00823975,-0.00808716,0.032196
722,-0.0392151,-0.00274658,-0.027771,-0.0775146,-0.00961304,0.0268555,0.00442505,0.0161743,0.00839233
722,-0.0137329,-0.0123596,-0.0390625,-0.075531,-0.00534058,0.0294495,0.00335693,-0.0241089,0.0163269
722,0.00640869,-0.0354004,-0.0205994,-0.0715637,-0.014801,0.0038147,-0.0192261,0.00442505,-0.0256348
722,0.0193787,-0.0352478,-0.0535583,-0.293732,0.0523376,-0.0231934,0.0227356,-0.00915527,0.0143433
722,-0.0088501,-0.0401306,-0.0341797,-0.348816,0.0550842,0.0325012,0.0366211,0.01297,0.0144958
722,-0.0259399,-0.0448608,-0.0352478,-0.15686,0.00640869,0.0274658,0.0263977,0.00442505,0.0192261
722,-0.00808716,0.0180054,0.00198364,0.0186157,0.00701904,0.0230408,0.0421143,0.00518799,0.0172424
722,-0.0126648,0.0718689,0.100555,0.0196838,0.0196838,0.0296021,0.0717163,-0.0102234,-0.0151062
723,0.0149536,0.0866699,0.144501,-0.0204468,0.0297546,-0.0114441,0.0213623,-0.0178528,0.0088501
723,-0.00930786,0.12085,0.160217,-0.0201416,-0.00366211,0.0143433,-0.0117493,0.00183105,-0.00671387
723,-0.0154114,0.141754,0.111694,0.0714111,0.0334167,0.00701904,0.0402832,0.00839233,-0.00457764
723,-0.014801,0.10498,0.0708008,0.0254822,0.0624084,0.00869751,0.0274658,0.0146484,-0.00411987
723,0.0198364,0.072937,0.045929,-0.0872803,-0.00427246,0.00686646,-0.00473022,0.0280762,-0.00640869
723,0.0062561,0.0556946,0.0498962,-0.128632,-0.0164795,0.0149536,0.0350952,-0.0164795,-0.0273132
723,0.0375366,0.0666809,0.0253296,0.0172424,-0.00213623,-0.00167847,-0.0131226,0.0062561,0.00564575
723,0.00823975,0.0604248,0.042572,0.190887,0.0389099,0.00457764,-0.0350952,0.00747681,0.0164795
723,0.0349426,0.0585938,0.0242615,0.158997,0.0146484,0.0062561,-0.0205994,0.0157166,0.0523376
723,0.0456238,0.0202942,0.00259399,0.00732422,0.0012207,0.00686646,0.0260925,-0.00930786,0.0344849
724,0.0263977,0.0299072,-0.015564,0.0595093,0.0201416,0.0332642,0.0273132,-0.0062561,0.0361633
724,0.0431824,0.00762939,-0.0265503,0.0285339,0.00793457,0.00244141,0.0146484,0.0212097,0.037384
724,0.00335693,0.0280762,0.00732422,-0.0961304,0.0123596,0.0227356,-0.00473022,0.0170898,-0.00457764
724,-0.0294495,0.0712585,0.00869751,-0.104218,-0.018158,0.00167847,-0.0114441,-0.0038147,-0.0125122
724,0.0111389,0.0834656,0.0309753,-0.010376,-0.0119019,0.0112915,-0.0128174,0.00900269,0.00854492
724,-0.0189209,0.0567627,0.039978,0.0292969,0.00396729,0.0250244,0.00549316,0.0318909,0.00976562
724,-0.0239563,0.0860596,0.0204468,0.124664,0.0158691,0.0184631,0.0337219,0.0192261,-0.0189209
724,0.0106812,0.110779,0.0511169,0.0366211,-0.00869751,0.00488281,0.0205994,0.0169373,0.00778198
724,-0.000152588,0.115509,0.00366211,0.111389,0.0289917,-0.0146484,-0.00488281,0.00686646,0.0198364
724,0.0167847,0.134583,0.0187683,0.106812,0.0340271,0.00442505,0.00671387,0.000305176,0.0195312
725,0.0106812,0.105896,0.0012207,-0.00991821,0.0128174,0.000457764,0.00396729,0.00823975,0.0248718
725,-0.0202942,0.0218201,-0.00976562,-0.0471497,0.0263977,0.0154114,0.0259399,0.0172424,0.010376
725,-0.00946045,0.0178528,-0.00869751,-0.0746155,0.0123596,0.0352478,0.0119019,-0.00991821,-0.0119019
725,-0.00656128,0.0552368,-0.00915527,0.00823975,0.0164795,0.0105286,0.0238037,-0.018158,-0.00167847
725,0.0213623,0.0302124,0.0216675,0.0437927,0.00717163,0.0198364,-0.0114441,-0.0138855,-0.0404358
725,0.0378418,0.0138855,0.000305176,0.0105286,0.0149536,-0.0108337,-0.00167847,-0.0169373,-0.0320435
725,0.0152588,0.058136,0.0164795,-0.0160217,-0.0224304,-0.00335693,0.0128174,-0.01297,0.000457764
725,-0.00137329,0.0708008,-0.0117493,-0.0524902,-0.00335693,0.00396729,0.00564575,0.0437927,0.00595093
725,0.00778198,0.032196,-0.0253296,-0.0546265,0.0109863,0.0172424,0.0100708,0.00640869,0.0114441
725,0.00366211,-0.0111389,-0.0169373,-0.0154114,0.00762939,-0.00930786,0.0180054,0.0271606,0.00808716
726,-0.00198364,0.0158691,-0.0143433,0.0532532,-0.00167847,0.00564575,-0.0149536,0.0189209,0.019989
726,0.00717163,-0.0189209,0.0231934,0.0177002,-0.0250244,0.00946045,0.0250244,0.0337219,-0.00976562
726,0.00961304,-0.0422668,-0.0273132,0.0331116,0.00411987,-0.000305176,-0.0131226,0.0178528,0.0184631
726,0.0164795,-0.0204468,-0.0132751,0.0473022,-0.00335693,0.00366211,-0.000762939,-0.00671387,0.0114441
726,0.0114441,0.00534058,0.00228882,0.0517273,-0.00701904,0.037384,0.0109863,0.0285339,0.0395203
726,0.00396729,0.00518799,0.0105286,0.0587463,-0.0297546,0.00396729,0.0369263,0.0469971,0.00686646
726,-0.000762939,-0.017395,0.020752,0.0354004,-0.0245667,-0.00961304,0.00289917,0.0292969,0.0198364
726,0.0172424,-0.0180054,-0.000610352,-0.0152588,0.00732422,0.0128174,0.0221252,0.0668335,0.0393677
726,0.0352478,0.0354004,0.00991821,-0.015564,0.0186157,0.0134277,-0.0297546,0.0335693,0.01297
726,0.0291443,0.0201416,0.0518799,0.0500488,0.00946045,0.0128174,-0.000762939,-0.0012207,0.0152588
727,0.0363159,-0.00259399,0.00411987,0.00183105,0.00137329,0.0282288,0.0216675,-0.0341797,0.0157166
727,0.0346375,-0.0126648,-0.0187683,0.00564575,0.01297,0.0187683,-0.00228882,-0.0050354,0.0332642
727,0.015564,-0.0263977,-0.0311279,-0.032959,-0.0210571,0.00808716,-0.0247192,-0.0289917,0.00335693
727,0.0158691,-0.0141907,-0.0253296,-0.0485229,-0.018158,0.0166321,0.0367737,-0.0180054,-0.00320435
727,-0.000762939,-0.0370789,-0.0157166,-0.0511169,-0.0588989,0.00656128,0.0288391,0.00152588,0.018158
727,0.0201416,-0.0546265,-0.0222778,-0.0253296,-0.0526428,0.00686646,0.0253296,0.00823975,0.055542
727,-0.0123596,-0.0512695,-0.0582886,-0.0379944,-0.0523376,0.00732422,0.0254822,-0.0160217,0.0340271
727,0.0195312,-0.0473022,-0.0213623,0.00152588,0.0128174,-0.0114441,-0.0115967,0.00823975,0.00961304
727,0.0430298,-0.0326538,-0.027771,0.0364685,0.0236511,0.0120544,-0.0138855,-0.00488281,-0.00335693
727,0.0436401,-0.0379944,-0.0172424,0.0431824,0.0338745,0.0158691,-0.0012207,-0.0134277,-0.0210571
728,0.0105286,0.0382996,-0.0238037,0.0300598,0.0218201,0.0120544,0.00549316,0.00411987,0.00808716
728,-0.0253296,0.0445557,0.000915527,0.010376,0.0813293,0.0012207,0.0299072,0.014801,0.0270081
728,-0.0270081,0.0540161,-0.00366211,0.0163269,0.0463867,-0.0131226,0.0151062,-0.00228882,0.014801
728,-0.00854492,0.0721741,-0.0323486,0.00671387,0.0306702,0.0245667,0.0270081,-0.0146484,0.0273132
728,-0.0108337,0.0532532,0.0198364,0.00152588,0.0363159,0.0141907,0.0442505,0.0111389,-0.00991821
728,-0.00823975,0.0296021,0.0337219,0.00518799,0.0256348,0.000915527,0.0114441,-0.0285339,0.0299072
728,0.0108337,0.0050354,0.0483704,0.00701904,0.0579834,0.0280762,0.00930786,0.0177002,0.0204468
728,0.00396729,-0.0216675,0.0608826,-0.032959,0.0550842,0.00106812,0.0154114,-0.0050354,0.00854492
728,0.0178528,-0.0222778,0.0437927,-0.0596619,0.0688171,-0.00671387,0.0344849,0.0161743,0.019989
728,0.0283813,0.00793457,0.0370789,-0.0231934,0.0604248,0.0222778,0.0184631,-0.000762939,0.00762939
729,0.043335,-0.0114441,0.0212097,0.108643,0.0292969,0.0323486,0.0100708,-0.000152588,-0.0167847
729,0.00915527,0.037384,0.0318909,0.0666809,0.0202942,0.0138855,0.032196,0.000915527,-0.00274658
729,-0.000152588,0.0344849,0.03479,0.0469971,0.0453186,-0.00396729,-0.0167847,0.0088501,0.00534058
729,-0.0335693,0.0161743,0.0288391,0.032959,0.050354,0.0172424,-0.0108337,0.0160217,0.0274658
729,-0.0135803,0.0416565,0.014801,0.0280762,0.037384,-0.00106812,0.022583,0.0386047,0.0265503
729,-0.0100708,0.0358582,0.0236511,0.0248718,0.0250244,-0.00839233,0.0187683,0.0517273,0.00473022
729,-0.0106812,0.0115967,0.0198364,0.00961304,-0.00518799,0.00534058,-0.012207,0.0282288,-0.00961304
729,-0.0050354,0.00579834,0.0106812,-0.0398254,-0.00274658,0.00473022,0.0112915,0.00808716,-0.0338745
729,0.0143433,-0.020752,0.0221252,-0.0289917,-0.0119019,-0.0154114,0.014801,-0.0337219,-0.00976562
729,-0.0140381,-0.0311279,0.0564575,-0.0656128,-0.00534058,0.0256348,0.00427246,-0.0132751,0.00335693
730,0.0202942,-0.0724792,0.0521851,-0.0326538,-0.00656128,0.0193787,-0.0106812,0.00244141,-0.0012207
730,0.0189209,-0.0180054,0.0541687,0.0637817,-0.00259399,0.0038147,0.000457764,0.00808716,0.00152588
730,0.0143433,0.0410461,0.0331116,0.0798035,-0.00457764,0.01297,0.000915527,-0.0012207,-0.00900269
730,0.0198364,0.0656128,0.0674438,0.0611877,-0.0242615,0.00930786,0.0209045,-0.01297,-0.00976562
730,0.0263977,0.0563049,0.0698853,0.0547791,-0.0228882,0.00976562,-0.00595093,-0.0158691,0.0302124
730,0.0494385,0.00442505,0.022583,0.0793457,-0.00900269,0.0143433,0.00671387,-0.0248718,0.00686646
730,0.0283813,0.0408936,-0.00732422,0.00823975,-0.0151062,0.0141907,0.032196,-0.00717163,0.00427246
730,0.0152588,0.0408936,-0.000305176,-0.0234985,-0.00228882,0.018158,-0.00549316,-0.00656128,-0.0239563
730,0.0102234,0.0714111,-0.00488281,-0.000457764,-0.00808716,0.0088501,0.0265503,0.00671387,-0.00167847
730,0.0416565,0.0428772,0.00106812,0.00579834,0.00228882,0.0117493,-0.0088501,0.0239563,0.00976562
731,0.0100708,0.0708008,0.019989,0.00946045,-0.00305176,0.0286865,0.0114441,0.0177002,0.0137329
731,0.00991821,0.0196838,0.0299072,0.027771,0.0202942,0.0183105,0.00137329,0.000762939,0.0117493
731,0.0236511,-0.0119019,0.0543213,0.0257874,0.0201416,0.00518799,0.0341797,-0.0375366,-0.0132751
731,0.00823975,-0.0341797,0.0386047,0.01297,0.0379944,-0.00274658,0.020752,-0.0119019,0.0105286
731,0.0117493,-0.0662231,0.00335693,-0.0778198,-0.000305176,-0.0192261,0.00686646,0.0260925,0.0175476
731,0.0038147,0.00930786,0.00991821,-0.183563,-0.0190735,0.0115967,0.00152588,0.018158,0.00656128
731,-0.00396729,0.0328064,0.0215149,-0.254517,-0.0326538,0.0152588,0.00167847,0.0209045,0.0186157
731,0.0186157,0.0236511,0.0288391,-0.108643,-0.0117493,-0.00640869,0.00488281,0.0190735,0.0289917
731,0.0134277,0.0198364,0.0416565,0.291443,-0.0271606,0.0144958,-0.00518799,0.00961304,-0.0115967
731,-0.0314331,0.0447083,0.0149536,0.401001,-0.00869751,0.0151062,0.00167847,0.0111389,0.0234985
732,-0.00320435,0.00289917,0.0166321,0.272827,-0.00869751,0.00411987,-0.0062561,0.00152588,0.0276184
732,0.00274658,0.0279236,0.0453186,0.246887,-0.000457764,-0.000457764,-0.00366211,0.00595093,0.0184631
732,-0.0132751,0.0201416,0.0364685,0.208282,-0.0012207,0.00991821,0.00259399,0.0202942,0.0405884
732,0.0137329,-0.0062561,0.0318909,0.138245,0.000305176,0.00488281,-0.0186157,-0.000915527,-0.00518799
732,0.00259399,-0.0106812,0.0125122,-0.0791931,-0.0106812,0.0167847,0.00305176,0.0189209,0.0259399
732,0.0088501,-0.00259399,0.03479,-0.152893,0.0213623,-0.00183105,0.00198364,0.0248718,-0.00961304
732,-0.0285339,-0.00839233,0.0234985,-0.125122,0.0137329,-0.0114441,0.00518799,0.015564,0.00350952
732,-0.00137329,-0.00305176,0.0247192,-0.0636292,0.0135803,0.0215149,0.00366211,0.00823975,-0.000610352
732,0.0144958,-0.0186157,0.0144958,-0.0788879,-0.0131226,0.025177,0.0109863,-0.0119019,0.0239563
732,0.00976562,-0.00732422,-0.00839233,-0.0382996,-0.00610352,0.0222778,0.0161743,0.00335693,-0.0135803
733,0.0192261,-0.0100708,0.0158691,-0.0166321,-0.0186157,0.00518799,0.0297546,-0.00427246,0.0100708
733,-0.000152588,-0.00305176,-0.0312805,-0.0088501,0.00488281,-0.00366211,-0.017395,0.00167847,0.0222778
733,0.0114441,-0.00305176,-0.000610352,-0.0814819,0.0593567,0.0160217,0.0445557,0.0465393,0.0216675
733,-0.0120544,0.0131226,-0.0212097,-0.0759888,0.0773621,-0.00961304,0.0421143,0.000457764,0.012207
733,-0.00701904,-0.0276184,0.0318909,-0.0991821,0.0434875,0.0262451,-0.00137329,0.0259399,0.0151062
733,0.000915527,0.0210571,0.0273132,-0.0320435,0.0396729,0.00595093,0.0119019,0.0141907,0.0234985
733,-0.0192261,0.0160217,0.0151062,0.0511169,0.0106812,0.0119019,0.018158,0.0514221,0.00534058
733,-0.00701904,-0.00305176,-0.00320435,0.0132751,0.0219727,-0.00747681,0.0408936,0.00427246,0.0100708
733,0.0106812,0.00534058,0.0161743,-0.0123596,-0.000457764,0.022583,0.00900269,0.0167847,0.0050354
733,0.00289917,-0.0767517,0.0244141,-0.00183105,0.0564575,0.00473022,0.0294495,0.0234985,0.0218201
734,0.000305176,-0.121765,0.0285339,-0.0346375,0.0289917,0.0282288,0.0312805,0.0231934,-0.000457764
734,0.0154114,-0.0831604,0.00686646,-0.0146484,0.000305176,0.0216675,0.0267029,-0.01297,0.0193787
734,0.0311279,-0.0663757,0.00869751,-0.0288391,0.0335693,-0.0154114,0.0183105,0.0410461,0.0175476
734,0.0933838,-0.0630188,0.0273132,-0.0540161,-0.0190735,0.0291443,0.0376892,-0.00808716,0.0248718
734,0.0698853,0.0350952,0.0177002,-0.122223,-0.020752,0.0183105,0.0198364,0.00106812,0.00823975
734,0.0415039,0.0987244,0.0219727,-0.0917053,0.0219727,0.0202942,0.0144958,0.0141907,0.0209045
734,0.00747681,0.109406,0.0439453,-0.0547791,-0.0167847,0.0175476,0.0088501,0.0350952,0.0392151
734,0.0198364,0.135803,0.0344849,0.0942993,0.0106812,-0.00274658,0.0164795,0.0483704,-0.00305176
734,0.0158691,0.118103,0.0247192,0.123901,0.00473022,0.0106812,-0.00442505,0.0201416,0.00976562
734,0.0100708,0.0901794,0.0344849,0.0238037,-0.0143433,0.0128174,-0.010376,0.0500488,0.0285339
735,-0.00335693,0.123291,0.025177,0.0733948,-0.0158691,0.00854492,-0.0312805,0.0440979,0.032196
735,0.00305176,0.133667,-0.000610352,0.0669861,-0.010376,0.00808716,0.0213623,0.0567627,-0.0062561
735,0.0038147,0.0801086,0.00839233,0.057373,0.00564575,0.00259399,0.00259399,0.0216675,0.0398254
735,-0.0132751,0.0434875,0.0131226,0.0772095,0.0158691,0.00946045,0.0115967,0.00900269,-0.000915527
735,0.0190735,0.0567627,0.0102234,-0.045166,0.00366211,-0.00534058,0.0138855,-0.0164795,0.0180054
735,0.00732422,0.039978,-0.00778198,-0.093689,-0.00839233,0.0128174,0.0338745,-0.00228882,0.0177002
735,0.0340271,0.0485229,0.0227356,0.0393677,-0.00976562,0.00549316,0.0270081,-0.000152588,-0.00869751
735,0.00320435,0.0424194,0.00228882,0.0927734,-0.0233459,0.00640869,0.0344849,-0.00930786,0.00793457
735,-0.00518799,0.0305176,-0.00747681,0.0930786,0.0115967,0.0149536,0.0288391,0.0404358,0.0088501
735,0.0198364,0.0382996,0.00976562,0.0479126,0.0175476,0.0219727,-0.00686646,0.0213623,0.0332642
736,-0.00549316,0.0569153,-0.00457764,0.119324,0.0172424,0.00228882,0.00183105,0.0239563,0.0442505
736,0.0288391,0.0224304,-0.0115967,0.151062,0.0135803,0.0242615,-0.00213623,0.00839233,0.00198364
736,0.0106812,0.0205994,-0.0442505,0.0187683,0.00793457,-0.00701904,-0.00106812,0.0178528,0.0326538
736,-0.010376,0.0457764,-0.0184631,-0.0585938,0.0311279,0.0126648,0.0230408,0.00442505,0.0135803
736,-0.00961304,0.0570679,-0.0143433,-0.0343323,0.037384,0.0134277,-0.0135803,-0.000915527,0.025177
736,-0.0283813,0.0537109,-0.0160217,-0.0297546,0.0224304,0.0428772,0.0126648,0.0305176,0.0318909
736,0.000915527,0.00686646,0.00366211,-0.0337219,0.00457764,0.00244141,0.0050354,0.0390625,0.0338745
736,-0.00671387,0.00579834,0.000305176,-0.0119019,-0.000152588,0.00656128,0.0184631,0.0334167,0.0161743
736,0.00350952,0.00778198,0.00228882,-0.00152588,-0.00518799,0.0050354,-0.00335693,0.00732422,-0.0167847
736,0.00823975,-0.0363159,0.0108337,0.00213623,0.00366211,0.0158691,0.0276184,-0.00320435,0.0221252
737,0.0508118,-0.0184631,0.0146484,-0.0244141,0.00534058,-0.00778198,0.0370789,0.0111389,0.0219727
737,0.0386047,-0.00411987,0.0154114,-0.0154114,-0.00198364,0.0187683,0.020752,-0.00717163,0.0178528
737,0.038147,-0.0141907,0.0402832,-0.0192261,0.00228882,0.015564,0.0190735,0.0050354,-0.00808716
737,0.0537109,-0.0320435,0.025177,0.0665283,0.0379944,0.00610352,0.0149536,-0.0227356,-0.000152588
737,0.0375366,-0.0369263,0.0115967,0.108185,-0.0161743,0.00396729,-0.00213623,-0.0192261,0.0120544
737,0.0135803,-0.00823975,-0.00244141,0.00930786,-0.000915527,0.0196838,-0.0143433,0.00259399,0.00534058
737,-0.0106812,-0.00564575,0.00167847,0.00228882,-0.00396729,0.0135803,-0.000152588,0.000762939,0.0273132
737,0.0254822,0.0100708,-0.0114441,-0.0221252,0.00213623,0.0131226,-0.0137329,-0.00656128,-0.0151062
737,0.0213623,-0.0117493,-0.00717163,-0.100403,-0.00259399,0.0151062,0.0320435,-0.000152588,0.00717163
737,0.0242615,-0.018158,-0.0228882,-0.114441,0.0253296,-0.00366211,0.00686646,0.00671387,0.0314331
738,0.0198364,-0.0354004,0.000305176,0.0660706,0.00289917,0.0190735,0.00717163,0.00595093,0.0317383
738,-0.00534058,-0.0404358,-0.0350952,0.13382,-0.0102234,0.0285339,0.0210571,0.0112915,-0.0131226
738,0.0247192,-0.0521851,-0.0247192,0.0230408,0.0135803,0.0354004,0.0202942,0.0376892,0.00244141
738,0.0274658,-0.0190735,0.0202942,-0.0306702,0.01297,0.00549316,0.0309753,0.0169373,0.0186157
738,0.0448608,-0.0242615,0.0212097,-0.0270081,0.0323486,0.0170898,0.00976562,0.0196838,0.00167847
738,0.0364685,0.00274658,0.00808716,-0.0128174,0.0157166,0.020752,0.0163269,0.0294495,0.00350952
738,0.014801,-0.0123596,-0.00518799,0.0204468,0.0495911,0.01297,0.00198364,0.0283813,0.00320435
738,-0.0221252,0.0161743,0.014801,-0.00228882,0.0234985,0.000457764,-0.00732422,0.0177002,0.00518799
738,-0.0175476,0.00701904,0.0123596,-0.00518799,-0.0143433,0.00793457,0.00610352,0.022583,-0.00534058
738,0.032959,0.000610352,0.0125122,0.0213623,-0.00396729,0.00900269,-0.0250244,0.00717163,0.0193787
739,-0.00701904,-0.00976562,0.00518799,0.00946045,-0.00640869,0.0117493,-0.0143433,0.0270081,0.0143433
739,0.00198364,0.00228882,-0.00427246,0.0154114,0.0108337,0.01297,0.040741,-0.00457764,-0.00808716
739,-0.00656128,-0.0236511,-0.0114441,0.0193787,0.0263977,0.00152588,0.0189209,0.00457764,-0.000305176
739,-0.0106812,-0.0291443,0.00259399,-0.00549316,0.035553,0.00228882,-0.00640869,-0.00106812,0.00167847
739,0.0189209,-0.0331116,0.0177002,-0.00869751,0.0109863,0.0183105,0.00396729,-0.015564,-0.0112915
739,0.0204468,-0.0341797,0.0205994,0.0337219,0.00915527,0.0280762,0.0088501,-0.0088501,-0.0234985
739,0.0257874,-0.00991821,-0.0106812,0.0164795,-0.00732422,0.0102234,0.0120544,-0.0135803,0.0248718
739,0.0050354,0.00442505,0.0401306,0.00854492,0.0151062,0.0254822,0.00335693,-0.000457764,0.00564575
739,0.0442505,0.0119019,0.0271606,0.0157166,0.00396729,-0.00137329,0.0140381,-0.000915527,0.000915527
739,0.0335693,-0.00198364,0.0286865,0.0236511,0.0227356,0.0346375,0.00808716,0.00579834,0.0288391
740,0.0262451,0.00991821,0.0358582,-0.0134277,-0.00793457,0.0115967,0.00579834,0.0221252,-0.00549316
740,0.0102234,0.00610352,0.0137329,-0.00946045,0.00473022,0.0128174,0.0506592,0.0180054,0.00213623
740,0.00137329,0.0302124,-0.0088501,0.020752,-0.000152588,-0.000610352,0.00946045,-0.00473022,0.0114441
740,-0.00473022,0.0260925,-0.019989,0.0279236,-0.00747681,0.0143433,0.0123596,-0.00534058,0.00991821
740,0.00411987,0.00534058,0.0219727,0.0210571,0.0354004,0.0062561,0.0170898,-0.0106812,0.0109863
740,0.0172424,-0.00976562,0.0221252,-0.00228882,0.00946045,0.032196,0.0038147,-0.0151062,0.015564
740,0.0366211,-0.0270081,0.0512695,0.0212097,0.00854492,0.0192261,-0.0189209,0.00701904,0.0253296
740,0.0189209,-0.0691223,0.0317383,-0.00167847,0.01297,0.00564575,-0.00137329,-0.0283813,0.0038147
740,0.0141907,-0.0489807,-0.00640869,-0.0111389,0.00305176,0.0114441,0.0405884,0.000915527,-0.0183105
740,-0.00900269,-0.0447083,-0.0100708,-0.00701904,0.00839233,-0.00717163,0.0398254,-0.0149536,0.00320435
741,-0.000762939,-0.0404358,-0.0230408,-0.0141907,-0.0151062,0.00549316,0.0320435,0.00106812,-0.00991821
741,0.0192261,-0.0395203,-0.0154114,-0.00244141,-0.0158691,-0.000457764,0.0189209,0.00869751,0.00854492
741,-0.0138855,-0.00305176,-0.0248718,0.017395,-0.0123596,0.0268555,0.00167847,0.00671387,0.000762939
741,0.0343323,0.0152588,-0.000762939,-0.00442505,-0.0343323,0.0233459,-0.0288391,0.0134277,0.040741
741,-0.0050354,0.0479126,-0.0184631,0.0160217,-0.00320435,0.0205994,-0.00244141,-0.0106812,0.0326538
741,0.0213623,0.0753784,-0.000457764,0.0265503,-0.032196,0.00793457,-0.0164795,-0.00518799,-0.0236511
741,-0.0131226,0.0590515,0.00198364,0.0291443,0.00289917,-0.00396729,-0.00671387,-0.00411987,0.0297546
741,0.00991821,0.0393677,0.0212097,0.0160217,0.0369263,0.00152588,0.0175476,0.0111389,0.01297
741,0.039978,0.0112915,-0.0088501,0.0212097,0.0117493,0.00579834,0.00579834,0.00823975,-0.00595093
741,-0.000915527,0.0164795,-0.00213623,0.0154114,0.0363159,0.0305176,0.0152588,0.0344849,0.00961304
742,-0.00747681,0.00900269,-0.0234985,0.0567627,0.0256348,0.0961304,-0.00366211,-0.0012207,0.0170898
742,-0.0158691,-0.0128174,-0.0102234,0.0543213,0.00671387,0.119781,0.00152588,0.0146484,0.00991821
742,0.0038147,-0.0576782,-0.00228882,0.0379944,0.0465393,0.0308228,-0.0141907,-0.00991821,0.0431824
742,-0.0192261,-0.0326538,0.00564575,0.0384521,0.0680542,-0.0169373,0.0297546,0.00457764,0.00579834
742,0.000762939,-0.0205994,0.00167847,0.0276184,0.0253296,-0.00564575,0.0270081,-0.00671387,0.0088501
742,0.0283813,0.0161743,0.00808716,0.0209045,0.0100708,0.0270081,0.0430298,-0.0105286,0.00564575
742,0.0306702,0.00350952,-0.0192261,0.0378418,0.019989,0.0494385,0.032196,0.00259399,0.0135803
742,0.0427246,-0.0239563,-0.00900269,0.0268555,0.00518799,0.0778198,0.00473022,0.0062561,0.045166
742,0.0296021,-0.0126648,0.00137329,-0.0405884,0.0495911,0.0605774,-0.01297,-0.00808716,0.000610352
742,0.0650024,0.087738,-0.0120544,-0.0828552,0.00518799,0.0508118,-0.0453186,-0.0183105,0.00259399
743,0.0218201,0.063324,0.000457764,-0.0657654,0.0141907,0.0299072,0.00305176,0.000305176,0.00778198
743,0.0088501,0.0723267,0.000915527,0.025177,0.0167847,0.00213623,0.00823975,-0.00762939,0.00305176
743,0.0193787,0.037384,0.0100708,0.0593567,-0.0186157,0.00183105,0.010376,-0.0315857,-0.00167847
743,0.00823975,0.0283813,-0.0291443,-0.00335693,0.00198364,-0.0163269,-0.0062561,-0.0219727,0.020752
743,-0.000152588,-0.0180054,-0.0106812,-0.0413513,0.0119019,-0.0062561,-0.0346375,-0.0248718,0.0146484
743,0.0317383,0.00549316,0.00274658,0.0242615,0.022583,-0.0340271,-0.00183105,0.0177002,0.020752
743,0.010376,-0.020752,0.00747681,0.0402832,0.0259399,-0.0430298,-0.00213623,-0.0128174,0.0242615
743,0.0106812,-0.000305176,0.0289917,-0.0862122,0.0149536,-0.0695801,-0.010376,-0.0163269,0.0112915
743,0.00946045,0.0492859,0.0244141,-0.147858,-0.00457764,-0.0527954,0.0286865,-0.0268555,0.00198364
743,0.010376,0.014801,0.0308228,-0.0421143,-0.0062561,-0.0233459,0.0299072,0.00305176,0.0193787
744,-0.0134277,-0.0154114,0.0402832,0.0544739,0.00869751,0.0149536,-0.00854492,0.025177,0.0299072
744,0.0202942,-0.0270081,0.0424194,0.0344849,-0.0239563,0.0389099,0.00320435,0.00213623,0.00564575
744,0.0382996,-0.01297,0.00747681,0.00274658,-0.0254822,0.065918,0.0166321,-0.0123596,0.0376892
744,0.0164795,0.0230408,-0.00411987,-0.0296021,-0.00778198,0.0730896,0.0190735,0.00457764,0.0254822
744,0.0135803,0.0227356,0.0102234,-0.0163269,-0.00259399,0.0737,0.0183105,-0.0050354,0.0224304
744,0.032196,0.0343323,0.000305176,0.0309753,-0.00869751,0.0166321,0.0131226,-0.0352478,0.0396729
744,0.0088501,0.0564575,-0.00228882,-0.0421143,-0.00518799,0.0180054,0.00274658,-0.0262451,0.00930786
744,0.0193787,0.0453186,-0.00610352,-0.103455,0.00915527,0.0483704,0.0108337,-0.00427246,0.0111389
744,0.0192261,0.0395203,-0.0178528,-0.00457764,-0.0172424,0.032196,0.0305176,0.015564,0.0263977
744,0.0132751,0.0442505,-0.0012207,0.215149,-0.00457764,0.0515747,0.0227356,0.01297,-0.0300598
745,0.01297,0.038147,0.0213623,0.236664,-0.00152588,0.038147,0.00640869,0.00747681,0.019989
745,0.0296021,0.0152588,0.0151062,0.190887,0.0280762,0.0115967,-0.0062561,-0.00595093,0.0257874
745,0.0202942,0.0198364,-0.00183105,0.146332,0.0196838,0.0126648,-0.00244141,0.00137329,-0.00411987
745,0.00244141,0.0450134,-0.00167847,0.0671387,0.00564575,0.0131226,0.0172424,0.0114441,0.0172424
745,0.00198364,-0.0157166,0.00289917,0.0149536,0.0132751,-0.00396729,0.0219727,0.00808716,-0.0267029
745,-0.00518799,-0.0160217,-0.0210571,-0.0167847,0.0151062,-0.0186157,0.0125122,0.0180054,0.00930786
745,0.00930786,-0.00534058,-0.000915527,0.0454712,0.00656128,-0.00152588,0.0337219,-0.00869751,0.0184631
745,0.00564575,0.00350952,0.00213623,0.0596619,0.0250244,-0.0128174,0.015564,0.00167847,0.00579834
745,0.0219727,0.030365,0.00976562,0.0279236,0.0283813,-0.00106812,-0.00762939,-0.00228882,-0.00442505
745,0.0245667,0.0289917,-0.0112915,-0.0588989,0.00289917,0.00228882,0.0131226,-0.00427246,-0.00564575
746,0.0128174,0.035553,0.00259399,-0.0874329,0.0283813,0.0227356,-0.018158,-0.0357056,0.0170898
746,0.0134277,-0.00366211,0.00961304,-0.0930786,0.00869751,0.00869751,-0.0222778,-0.00579834,-0.00839233
746,0.0242615,-0.00457764,0.00991821,-0.134735,0.00259399,-0.0109863,0.0187683,-0.00274658,0.0161743
746,0.0341797,0.00488281,0.00671387,-0.0184631,0.0137329,-0.00671387,0.000152588,-0.00518799,0.00930786
746,0.022583,0.0164795,0.017395,0.019989,0.00640869,-0.0204468,0.010376,-0.0216675,0.018158
746,0.0119019,0.00747681,0.0239563,-0.0260925,0.0177002,-0.0125122,0.0114441,0.00137329,-0.00335693
746,0.0184631,0.00823975,0.0180054,-0.0440979,0.00946045,-0.00137329,0.0274658,0.00930786,0.0012207
746,0.00747681,0.0205994,0.0242615,-0.0285339,0.015564,-0.0260925,0.012207,-0.00274658,0.0134277
746,-0.0109863,0.0109863,0.0263977,0.055542,0.0166321,-0.0115967,0.00259399,0.000457764,0.0256348
746,0.0273132,0.0167847,0.0114441,0.0714111,-0.0213623,-0.00686646,-0.00610352,-0.0158691,-0.0341797
747,-0.0108337,0.0665283,0.0180054,0.0849915,-0.0247192,0.00930786,0.0338745,0.00213623,0.00701904
747,0.0382996,0.0325012,0.00579834,0.0634766,-0.0169373,-0.0622559,0.0367737,0.00579834,0.00823975
747,0.0154114,0.000457764,0.0419617,0.0509644,-0.0463867,-0.0924683,0.0457764,-0.00762939,0.0141907
747,-0.00946045,-0.00488281,0.0196838,-0.00564575,-0.0532532,-0.115509,-0.00549316,-0.01297,0.000457764
747,0.0257874,0.0447083,0.0398254,-0.0621033,0.0210571,-0.13092,-0.0312805,0.0170898,0.0131226
747,0.00366211,0.0120544,0.0259399,-0.0917053,0.0215149,-0.0857544,-0.0280762,0.010376,0.015564
747,0.0144958,0.0167847,0.00793457,-0.120392,0.0689697,-0.0390625,-0.00701904,0.0299072,0.000610352
747,0.00671387,-0.00274658,-0.0108337,-0.108948,0.0584412,-0.0267029,0.000610352,0.00198364,0.0386047
747,0.000762939,-0.00640869,-0.000152588,0.0292969,0.030365,-0.0285339,0.00259399,-0.00228882,0.0149536
747,-0.0134277,0.0393677,0.0378418,0.0614929,0.0344849,-0.0325012,0.0202942,0.0141907,0.0128174
748,0.0222778,0.00534058,0.0219727,0.00991821,-0.00823975,-0.0100708,-0.0213623,0.00961304,0.0259399
748,0.0268555,0.0102234,0.0141907,0.00854492,0.0106812,-0.0474548,0.00839233,0.035553,0.0198364
748,0.00198364,0.00198364,0.00289917,0.0231934,-0.0125122,-0.00640869,-0.00244141,0.00137329,0.0279236
748,-0.0143433,0.0363159,0.00564575,0.012207,-0.00762939,0.0198364,0.0141907,-0.000305176,-0.00518799
748,0.00411987,0.0160217,-0.0231934,0.0285339,-0.0656128,0.0491333,0.0178528,0.0038147,-0.0119019
748,-0.00778198,0.0222778,-0.00518799,-0.00946045,-0.0654602,0.0138855,0.0706482,0.00152588,0.0384521
748,0.0151062,0.0337219,-0.018158,-0.0292969,-0.0810242,-0.0680542,0.0515747,-0.0126648,0.00762939
748,0.00991821,0.0314331,0.00152588,0.0187683,-0.0773621,-0.121307,0.0372314,-0.00366211,0.0100708
748,0.0111389,-0.00335693,0.0299072,0.0445557,-0.0437927,-0.115356,-0.0170898,0.0102234,0.0257874
748,0.0190735,-0.0184631,0.0234985,0.0180054,0.0354004,-0.119629,-0.0219727,-0.0195312,0.0297546
749,0.00289917,-0.0172424,0.0372314,0.0215149,0.0648499,-0.0212097,-0.0338745,0.0218201,0.0260925
749,0.0230408,-0.00106812,0.0454712,0.0360107,0.0971985,0.000610352,-0.0337219,0.0308228,0.000457764
749,-0.00579834,0.00778198,0.0386047,0.0250244,0.0404358,0.0799561,-0.0346375,0.0100708,-0.00320435
749,-0.00137329,0.00396729,-0.0192261,0.0149536,0.0776672,0.098114,-0.019989,0.0257874,0.0291443
749,-0.0102234,-0.00686646,-0.0100708,0.0215149,0.0376892,0.177765,-0.00915527,0.0228882,0.0195312
749,0.0134277,-0.0286865,0.00534058,0.00183105,0.0422668,0.180511,0.0300598,0.0175476,0.0137329
749,0.00640869,-0.0158691,0.0302124,0.00793457,0.0500488,0.139008,0.0466919,-0.00442505,0.00839233
749,0.0102234,-0.000152588,-0.000915527,-0.0202942,0.0741577,0.106354,0.0662231,0.00152588,-0.00717163
749,-0.00900269,-0.00823975,0.0050354,-0.0234985,0.0480652,0.0485229,0.0369263,0.00686646,0.0231934
749,-0.00671387,-0.00137329,0.022583,0.00640869,0.0152588,0.0631714,0.0134277,0.0192261,0.00900269
750,-0.00320435,-0.019989,0.0523376,0.0288391,0.019989,0.072937,-0.0050354,0.00701904,0.000457764
750,0.00930786,-0.00152588,0.0447083,0.0209045,0.0285339,0.0688171,-0.00183105,0.0135803,0.00900269
750,0.0254822,0.00762939,0.0553894,0.0247192,0.00549316,0.0869751,0.0215149,0.0112915,0.0198364
750,-0.00549316,0.00961304,-0.00915527,0.0198364,0.00427246,0.0666809,0.00854492,-0.00213623,-0.00488281
750,0.0263977,0.00289917,0.0404358,-0.00534058,0.000305176,0.055542,-0.00198364,0.0163269,0.0152588
750,0.0100708,0.0263977,-0.000457764,-0.0123596,0.00213623,0.0440979,0.0105286,0.0257874,0.012207
750,0.00411987,-0.00610352,-0.0137329,-0.0479126,-0.0300598,0.0369263,-0.00183105,0.0062561,0.0125122
750,0.0154114,-0.00961304,-0.030365,-0.067749,0.0289917,0.0798035,-0.000152588,-0.00228882,-0.00167847
750,-0.00152588,0.00823975,-0.0195312,0.0253296,0.0123596,0.030365,-0.00137329,0.0106812,0.000610352
750,0.0343323,0.0259399,-0.00198364,0.0944519,0.0544739,0.0271606,0.0228882,0.012207,-0.00305176
751,0.0178528,0.0296021,-0.0352478,0.0567627,-0.00518799,0.0457764,0.0202942,-0.00473022,-0.0267029
751,0.0221252,0.0244141,0.0131226,0.0164795,0.0131226,0.0105286,0.0163269,0.00228882,0.014801
751,0.017395,-0.00762939,0.0274658,-0.00717163,-0.0344849,-0.0390625,0.0151062,0.0123596,0.0138855
751,0.0405884,0.0152588,0.0198364,-0.0184631,0.000762939,-0.0769043,0.00946045,-0.0131226,-0.0170898
751,0.000915527,0.00732422,0.0292969,-0.00808716,-0.0134277,-0.0263977,-0.0280762,0.00259399,0.0193787
751,-0.0109863,0.0138855,0.0502014,-0.0311279,0.0178528,-0.0132751,-0.0115967,0.00839233,0.00900269
751,0.00183105,0.0154114,0.0328064,-0.0265503,0.0216675,0.00701904,-0.0393677,0.0247192,0.0161743
751,0.0106812,0.00335693,0.0354004,-0.012207,-0.00595093,-0.050354,-0.00747681,0.0111389,0.00259399
751,0.0108337,-0.000152588,0.0434875,0.0502014,0.0109863,-0.0242615,0.0163269,0.00930786,-0.000610352
751,0.0164795,0.0141907,0.0289917,-0.0132751,-0.0038147,-0.0372314,0.00534058,-0.0178528,0.042572
752,0.00900269,0.0062561,0.0601196,-0.0344849,-0.0134277,-0.00274658,0.00793457,0.017395,-0.00564575
752,-0.00457764,-0.0212097,0.0190735,0.0323486,-0.00854492,0.0111389,0.0227356,0.0267029,0.0141907
752,0.0238037,-0.00366211,0.0308228,0.193787,0.0219727,0.0587463,0.0201416,0.0257874,0.00808716
752,-0.00411987,-0.0105286,-0.00579834,0.2742,0.0038147,0.0582886,0.00823975,0.0100708,0.0360107
752,0.0115967,-0.00579834,-0.0163269,0.0679016,0.027771,0.0679016,0.0276184,-0.0062561,0.0158691
752,-0.0163269,-0.00564575,0.00152588,-0.0970459,0.0170898,0.0813293,0.00473022,0.0170898,0.00961304
752,0.00686646,-0.0112915,0.00595093,-0.10376,-0.0132751,0.0817871,-0.000457764,0.00289917,-0.000915527
752,-0.0115967,0.00213623,-0.0209045,-0.0488281,-0.0245667,0.052948,0.0227356,-0.000305176,0.0109863
752,0.0259399,-0.014801,-0.0227356,-0.0556946,0.037384,0.0205994,0.0119019,0.0192261,0.0224304
752,0.0138855,-0.0262451,-0.0219727,-0.0773621,0.0126648,0.0532532,-0.0268555,0.0201416,0.01297
753,0.0469971,0.0105286,-0.0196838,-0.088501,-0.0221252,0.0332642,-0.0253296,-0.0137329,-0.0144958
753,0.0198364,0.0448608,-0.0297546,0.017395,-0.000915527,0.00228882,-0.0222778,0.00900269,-0.000457764
753,0.0050354,0.0257874,-0.000305176,0.0132751,-0.00473022,-0.0546265,0.0175476,0.0216675,-0.00686646
753,0.00946045,0.0334167,0.0154114,-0.0309753,-0.0482178,-0.0624084,0.0154114,-0.00167847,0.0154114
753,0.020752,0.0550842,0.0187683,0.0106812,-0.0463867,-0.0712585,0.00274658,0.0187683,0.0212097
753,0.0250244,0.0662231,0.00534058,0.0228882,0.0189209,-0.109711,0.000152588,0.0221252,0.0201416
753,0.0100708,0.0624084,0.0180054,0.0445557,0.0286865,-0.0996399,-0.00274658,0.0111389,-0.00305176
753,-0.00305176,0.0337219,0.00411987,-0.00244141,0.0288391,-0.129852,-0.0102234,0.0184631,-0.0143433
753,0.0163269,0.0164795,0.0105286,-0.059967,0.0354004,-0.168915,-0.0012207,0.0149536,-0.00289917
753,0.0231934,0.00427246,0.0163269,-0.0708008,0.0143433,-0.180206,-0.0204468,0.0216675,0.00793457
754,0.0410461,0.0166321,0.0331116,-0.0289917,0.000610352,-0.164032,0.0488281,0.00793457,0.00518799
754,0.0317383,-0.0134277,0.00183105,0.0985718,-0.0408936,-0.166779,0.00473022,0.00793457,0.00808716
754,0.0115967,0.0112915,0.00564575,0.137939,-0.0367737,-0.15686,-0.00228882,-0.0151062,0.000152588
754,-0.00213623,0.0177002,0.0172424,0.0750732,-0.0178528,-0.14328,-0.00534058,0.0123596,-0.0135803
754,-0.00854492,-0.00396729,0.00289917,-0.015564,-0.0178528,-0.153351,0.0172424,0.0198364,0.0257874
754,0.0154114,0.00320435,0.00198364,-0.0640869,0.037384,-0.143127,-0.00793457,0.0256348,0.0123596
754,0.0317383,0.0184631,-0.0138855,-0.0279236,0.0570679,0.0605774,0.0112915,0.00564575,0.0338745
754,0.0105286,0.0161743,0.0132751,0.0563049,0.0480652,0.121307,-0.00396729,0.00595093,0.00610352
754,0.0228882,0.0195312,-0.0253296,0.0593567,0.0325012,-0.00335693,0.0117493,-0.00396729,-0.00549316
754,0.000305176,0.0289917,0.00732422,0.00335693,0.0334167,-0.015564,0.00991821,-0.0102234,0.0160217
755,0.0234985,0.0151062,0.0338745,-0.0180054,0.0247192,-0.135803,0.0172424,0.0227356,-0.00961304
755,0.0259399,0.0332642,0.00839233,0.0193787,0.0219727,-0.184021,0.0106812,0.00411987,-0.00854492
755,-0.00305176,0.00244141,0.0210571,0.040741,0.00396729,-0.120544,0.0012207,-0.0102234,0.0088501
755,0.017395,0.0267029,0.00579834,-0.0038147,0.0259399,0.0323486,0.0119019,-0.00106812,0.0297546
755,0.00793457,0.0300598,0.0242615,0.04776,-0.0180054,0.204926,-0.00839233,0.0288391,-0.00854492
755,-0.000152588,0.00167847,-0.00427246,0.0926208,-0.0495911,0.15152,0.00900269,0.00823975,-0.0195312
755,-0.0140381,-0.00991821,-0.00106812,0.032196,-0.0732422,0.0891113,0.0320435,0.0210571,0.017395
755,0.0143433,0.00579834,0.0170898,0.0144958,-0.0387573,0.000152588,0.0340271,-0.00946045,-0.00564575
755,0.0215149,0.0274658,0.00671387,0.00320435,0.032196,-0.0653076,0.0317383,-0.00213623,0.0169373
755,0.00228882,0.0012207,0.00305176,0.00839233,0.107269,0.0280762,0.0430298,-0.0227356,-0.0250244
756,0.0259399,0.0158691,-0.00442505,0.0608826,0.0460815,0.26474,0.0427246,0.0088501,-0.00274658
756,0.0175476,-0.000152588,0.019989,-0.00976562,0.0576782,0.434418,0.00473022,-0.00747681,-0.0286865
756,0.0285339,0.00488281,0.00167847,-0.0160217,0.0527954,0.378571,0.0236511,0.00900269,0.0164795
756,0.00961304,0.00900269,-0.00671387,0.0117493,0.0511169,0.305481,-0.000915527,-0.0050354,-0.0169373
756,0.00656128,0.000610352,-0.00335693,-0.0158691,0.0312805,0.130157,0.0369263,-0.0372314,0.0105286
756,0.0146484,0.00488281,0.00778198,-0.00167847,0.0415039,0.101776,0.00976562,0.0120544,-0.0123596
756,-0.00473022,-0.00396729,-0.00457764,-0.0288391,0.0518799,0.100098,0.0105286,0.00488281,0.0343323
756,-0.00167847,0.0204468,0.00717163,-0.0204468,0.0845337,0.0668335,0.00839233,0.01297,-0.0144958
756,-0.010376,-0.00106812,-0.00656128,-0.030365,0.0706482,0.0588989,0.0224304,0.0140381,0.0195312
756,-0.000915527,0.0163269,-0.0256348,0.000610352,0.050354,0.0363159,0.0131226,0.0178528,0.0160217
757,0.0012207,-0.00198364,-0.00518799,0.0170898,0.0605774,0.0175476,-0.0106812,-0.0102234,-0.0146484
757,0.0256348,0.00442505,-0.0195312,0.0428772,0.0308228,-0.020752,-0.00808716,0.0158691,0.0154114
757,0.0152588,-0.00457764,0.0135803,0.0410461,-0.0144958,0.00656128,-0.0125122,0.0138855,0.0119019
757,0.00259399,0.0117493,-0.0138855,-0.0112915,0.0146484,-0.0357056,0.00564575,0.0131226,-0.0164795
757,0.0105286,-0.0132751,-0.00793457,-0.00320435,0.0128174,-0.0422668,0.0253296,-0.00457764,0.00244141
757,0.019989,0.00274658,-0.0387573,0.0175476,0.0233459,-0.0761414,0.000915527,0.00152588,0.00793457
757,0.0138855,-0.0204468,-0.0117493,0.0215149,-0.00976562,-0.0532532,0.0109863,0.00244141,0.00610352
757,0.0167847,-0.000152588,0.00640869,0.014801,-0.0132751,0.0109863,0.00350952,0.0088501,0.0119019
757,0.00335693,-0.00457764,0.0337219,0.027771,0.00457764,0.040741,-0.0215149,0.00762939,-0.0050354
757,0.0564575,-0.00305176,0.00823975,0.0256348,-0.0230408,-0.018158,-0.0320435,0.00289917,-0.0161743
758,0.0216675,-0.0158691,-0.00610352,0.00946045,-0.020752,-0.0598145,0.0126648,0.0138855,-0.0050354
758,0.00106812,0.00213623,0.014801,0.00350952,-0.035553,-0.0814819,-0.00289917,0.00183105,-0.00549316
758,0.00335693,0.0189209,0.0050354,-0.0218201,-0.0413513,-0.0627136,-0.00518799,0.000457764,0.0314331
758,0.0038147,0.0578308,0.030365,-0.0352478,-0.00869751,0.000610352,0.00427246,0.00289917,0.000152588
758,0.035553,0.050354,0.0343323,-0.0160217,0.0163269,0.0779724,-0.0109863,-0.0111389,0.0135803
758,0.00991821,0.0267029,0.0367737,-0.0149536,0.0178528,0.093689,-0.00656128,0.0120544,0.00396729
758,0.00640869,0.032196,0.0260925,0.0132751,0.0265503,0.0613403,0.0175476,-0.000152588,0.00274658
758,0.0100708,0.0144958,-0.00701904,-0.039978,0.0259399,0.0416565,0.0135803,0.00930786,-0.0257874
758,-0.00320435,0.0296021,-0.0222778,0.0285339,0.0149536,0.0247192,-0.00228882,-0.0131226,0.0135803
758,0.0149536,0.0341797,-0.0170898,0.164337,-0.00518799,0.0350952,-0.0050354,0.020752,0.0228882
759,0.0227356,0.0144958,0.022583,0.135345,0.00793457,0.0209045,-0.0134277,0.0137329,-0.0186157
759,0.00839233,0.014801,-0.0259399,0.0587463,-0.0213623,0.0224304,0.00350952,0.0143433,-0.0149536
759,0.01297,0.00350952,0.00259399,-0.0697327,0.00701904,0.0531006,-0.012207,0.0245667,0.018158
759,-0.000152588,0.012207,0.019989,-0.0993347,-0.0244141,0.0152588,-0.00976562,0.0140381,0.00457764
759,0.00808716,0.00946045,0.0270081,-0.130005,0.00762939,0.0112915,0.00823975,0.0137329,0.00991821
759,-0.00686646,0.0123596,0.0187683,-0.0737,-0.0115967,-0.00335693,0.00640869,0.0128174,-0.00152588
759,0.0241089,-0.0192261,-0.000915527,-0.0393677,-0.0115967,0.0114441,0.00610352,-0.00442505,-0.0050354
759,0.0192261,0.00228882,0.00228882,-0.0180054,0.0115967,0.0337219,0.00335693,-0.0137329,-0.00930786
759,0.0177002,-0.000457764,-0.0238037,0.00762939,0.0274658,0.00900269,-0.0135803,0.0311279,0.000915527
759,0.00930786,-0.00137329,-0.0169373,-0.0227356,0.0187683,-0.0468445,0.0205994,0.0230408,0.0140381
760,0.000610352,-0.00167847,-0.0263977,0.0311279,-0.018158,-0.0654602,0.0114441,0.0038147,0.0100708
760,0.0216675,0.0402832,0.0184631,0.0471497,0.0050354,-0.0860596,-0.0346375,-0.00564575,0.012207
760,0.0372314,0.0309753,0.0137329,0.0421143,0.0178528,-0.14679,-0.0517273,0.00564575,0.0239563
760,0.0144958,0.038147,0.0675964,0.0283813,-0.00671387,-0.222778,0.00183105,0.0270081,0.00671387
760,0.000610352,0.0405884,0.0296021,-0.00213623,-0.00640869,-0.209808,-0.0326538,0.0440979,0.0245667
760,0.0109863,0.0318909,0.0274658,-0.0119019,-0.0338745,-0.163574,-0.00411987,0.0209045,0.00610352
760,0.00701904,0.0209045,0.0315857,0.0231934,-0.0511169,-0.159912,-0.0215149,0.00610352,0.0244141
760,0.022583,0.0299072,0.0315857,0.0216675,-0.0895691,-0.160675,-0.0241089,0.00595093,-0.0213623
760,0.0012207,0.0292969,0.0151062,0.0309753,-0.119476,-0.244446,0.00915527,0.0190735,0.0204468
760,0.00137329,0.00976562,0.0125122,0.0595093,-0.106506,-0.124969,0.0393677,0.0050354,0.0352478
761,0.00198364,0.00228882,0.00686646,0.0257874,-0.0622559,0.000152588,0.0215149,0.00671387,0.0170898
761,0.00213623,-0.0254822,-0.0363159,-0.0149536,0.00671387,0.0918579,0.0636292,0.0250244,0.0190735
761,0.025177,-0.027771,-0.0500488,-0.0157166,0.032196,0.139923,0.09552,0.0114441,0.015564
761,0.0117493,-0.00274658,-0.0292969,0.00946045,0.0569153,0.328064,0.0375366,-0.00396729,-0.0286865
761,-0.000762939,-0.01297,-0.00259399,0.025177,0.0508118,0.479279,0.0260925,0.0143433,-0.01297
761,0.00656128,0.0106812,0.00640869,0.0205994,0.0215149,0.369873,0.0218201,0.0248718,0.0112915
761,0.00289917,-0.00320435,-0.00854492,0.0318909,0.0216675,0.217285,0.00915527,0.0163269,0.0111389
761,-0.00549316,0.00457764,-0.000915527,-0.00671387,0.104218,0.118713,0.0593567,-0.00915527,0.00106812
761,0.0062561,0.0131226,0.0221252,-0.010376,0.0834656,0.0157166,0.0260925,0,-0.0144958
761,-0.00839233,0.0227356,0.0430298,-0.0012207,0.0868225,-0.0244141,0.0434875,0.0126648,0.0166321
762,0.015564,0.0192261,0.0442505,0.0177002,0.0228882,-0.043335,0.0201416,0.0189209,-0.000152588
762,0.0160217,0.00427246,0.0177002,-0.00991821,0.0376892,-0.121307,0.0283813,0.0195312,0.00244141
762,-0.00427246,0.0357056,-0.0115967,0.0114441,-0.0292969,-0.0709534,0.0469971,0.0112915,0.037384
762,0.0169373,0.0343323,-0.00350952,-0.0154114,-0.0611877,-0.0535583,-0.00701904,-0.0151062,0.00854492
762,0.0119019,0.0273132,-0.0157166,-0.0300598,-0.0401306,-0.0741577,0.00442505,0.0349426,0.0170898
762,0.0109863,0.00762939,-0.0192261,-0.0115967,0.0062561,-0.111542,-0.0500488,0.0218201,0.014801
762,0.00137329,0.0271606,-0.0178528,-0.00488281,-0.00320435,-0.057373,-0.0256348,0.0114441,-0.00701904
762,0.00534058,0.0294495,-0.00335693,-0.00106812,-0.0575256,-0.0440979,-0.0309753,0.0236511,-0.00564575
762,-0.00411987,0.0178528,-0.0271606,-0.0213623,-0.0184631,-0.11261,0.00701904,-0.00183105,0.00427246
762,0.015564,0.0114441,0.00930786,-0.0538635,0.00595093,-0.0746155,-0.00106812,-0.0105286,-0.00961304
763,0.0218201,-0.0111389,-0.0239563,0.00320435,0.0109863,0.164337,0.038147,-0.017395,-0.0141907
763,-0.000152588,-0.0134277,-0.0135803,0.0605774,0.00900269,0.263519,0.0209045,-0.00518799,0.0105286
763,0.0135803,0.000457764,0.00564575,0.0212097,0.0453186,0.268097,0.032959,0.0267029,0.00518799
763,0.0213623,0.0312805,0.00549316,0.00152588,0.0184631,0.218201,0.0500488,0.00747681,0.00396729
763,0.00137329,0.018158,0.00137329,0.0212097,0.0144958,0.251007,0.0274658,0.0259399,-0.0143433
763,0.0154114,0.000152588,0.022583,0.00991821,0.0280762,0.229187,0.000915527,0.0289917,0.00350952
763,0.00808716,-0.00289917,-0.00717163,-0.00534058,0.0636292,0.111084,-0.0163269,0.00686646,0.032959
763,0.0120544,0.018158,-0.0263977,0.0125122,0.0860596,0.0830078,-0.0308228,0.0177002,0.0234985
763,0.0239563,0.0105286,-0.00793457,0.00335693,0.06073,0.0509644,-0.0170898,0.00305176,0.03479
763,0.00762939,0.00686646,-0.0109863,0.00671387,0.0386047,0.063324,-0.0332642,-0.00152588,0.0291443
764,0.0192261,0.00930786,0.00305176,-0.0012207,0.0914001,0.0668335,0.00137329,-0.00137329,-0.00244141
764,0.0216675,0.0360107,0.0386047,-0.017395,0.0747681,0.0372314,0.0364685,0.0370789,0.00106812
764,-0.00305176,0.0357056,0.04776,-0.00534058,0.06073,0.0115967,0.0498962,0.0123596,-0.00106812
764,0.00762939,0.0256348,0.0378418,-0.0256348,0.0111389,0.00823975,0.0480652,-0.0172424,0.0190735
764,-0.00442505,-0.0050354,0.0453186,-0.0062561,0.0331116,0.0382996,0.0314331,0.0305176,0.0160217
764,0.00808716,-0.00457764,0.0364685,0.0190735,0.0163269,0.0576782,-0.00411987,-0.00183105,0.00411987
764,0.0289917,0.0114441,0.0283813,0.0468445,0.00167847,-0.0299072,-0.0146484,-0.00274658,0.0189209
764,0.00106812,0.00442505,0.0296021,0.0520325,-0.0442505,-0.120239,-0.0379944,0.00152588,-0.00137329
764,0.0132751,0.0219727,0.0308228,0.0180054,-0.0834656,-0.198669,0.00427246,0.00259399,0.00442505
764,0.00823975,0.027771,0.0424194,0.0328064,-0.0546265,-0.254974,0.00915527,0.0202942,0.0244141
765,0.0375366,0.0163269,0.0372314,0.0119019,-0.0253296,-0.221405,-0.0175476,0.0386047,-0.00289917
765,0.0102234,0.0216675,0.0212097,-0.0172424,-0.00808716,-0.237427,-0.0349426,0.00762939,-0.00305176
765,0.00839233,0.0102234,0.0271606,0.0140381,-0.045929,-0.209808,-0.0151062,-0.00244141,-0.000915527
765,-0.012207,-0.000305176,0.00396729,0.00427246,-0.0296021,-0.0663757,0.0190735,0.00549316,0.0134277
765,0.0149536,0.00640869,0.00961304,0.0050354,-0.0291443,0.0758362,0.0364685,0.0283813,0.0143433
765,0.00839233,-0.00488281,-0.00717163,-0.0119019,-0.0187683,0.156708,0.0161743,0.0285339,0.0375366
765,-0.0106812,-0.00930786,-0.012207,-0.00106812,-0.0376892,0.248566,0.065155,0.0050354,0.0187683
765,0.015564,-0.0296021,-0.020752,0.012207,0.0177002,0.364227,0.0109863,0.0138855,-0.00183105
765,0.00457764,-0.0341797,-0.0357056,-0.00686646,0.0437927,0.281219,0.0428772,0.0106812,0.0241089
765,0.0137329,0.00976562,-0.0146484,0.0102234,0.0767517,0.158997,0.0743103,-0.00534058,0.00762939
766,0.0131226,-0.00457764,-0.0126648,-0.00366211,0.135803,0.0524902,0.0881958,-0.00152588,0.0161743
766,0.0193787,-0.00869751,0.0180054,0.0132751,0.157013,0.00732422,0.0715637,0.0222778,0.0270081
766,0.0213623,-0.00335693,0.0473022,0.0291443,0.125122,-0.027771,0.0480652,-0.000457764,0.014801
766,0.0311279,0.0367737,0.0366211,0.0256348,0.0564575,0.00900269,0.0402832,-0.00305176,0.0132751
766,0.0196838,0.0471497,-0.0192261,0.0273132,0.03479,0.0354004,0.0387573,-0.0117493,0.0186157
766,-0.00610352,0.039978,0.00259399,0.0338745,0.0300598,0.0674438,0.0328064,0.0248718,0.0273132
766,-0.00228882,0.017395,-0.0161743,0.0227356,0.0157166,0.0267029,0.0138855,-0.00579834,0.0382996
766,-0.000762939,0.0256348,-0.00823975,-0.0050354,-0.0160217,0.00244141,0.0193787,0.0108337,0.0137329
766,0.00411987,0.00534058,-0.0183105,0.0256348,0.0216675,0.0213623,0.0126648,-0.00320435,0.0305176
766,0.0125122,0.00823975,-0.0209045,0.0215149,0.0161743,0.00595093,0.0189209,-0.00427246,-0.00686646
767,0.0135803,-0.00106812,-0.00427246,0.0259399,-0.0257874,0.00488281,-0.00411987,-0.00808716,-0.0256348
767,0.0105286,0.0257874,-0.0164795,0.00213623,0.0161743,-0.0209045,0.00900269,0.0158691,0.0346375
767,0.00961304,0.0131226,-0.00961304,0.00305176,0.0279236,-0.0358582,-0.00442505,0.0219727,0.00411987
767,0.00656128,0.0248718,-0.00579834,-0.0415039,0.00793457,-0.0190735,0.00305176,0.0244141,-0.0135803
767,0.01297,0.00366211,-0.0151062,-0.078125,0.0201416,-0.0413513,0.00900269,-0.00808716,-0.00411987
767,0.0123596,0.00411987,-0.0137329,-0.0088501,-0.0161743,-0.0187683,-0.00350952,-0.00335693,0.0123596
767,0.0192261,0.0271606,0.020752,0.10788,0.010376,-0.00854492,-0.00961304,0.00366211,0.00289917
767,-0.022583,0.0202942,0.022583,0.206146,-0.0285339,0.00671387,-0.0245667,0.0184631,0.0270081
767,0.00961304,0.0012207,0.0563049,0.183716,-0.0172424,0.00595093,-0.0263977,0.0300598,0.0270081
767,0.00808716,0.0164795,0.0588989,0.0343323,0.00152588,-0.00869751,-0.022583,0.00534058,0.00976562
768,0.0160217,0.0102234,0.0509644,-0.0569153,-0.0175476,-0.0196838,0.0334167,0.0189209,0.0163269
768,-0.0111389,0.0193787,0.067749,-0.149841,0.038147,-0.0378418,-0.0050354,0.012207,0.0352478
768,0.0135803,0.0109863,0.0801086,-0.124664,0.00946045,-0.0312805,0.0256348,0.032959,0.0143433
768,0.015564,0.00839233,0.0468445,-0.0523376,-0.0123596,-0.0157166,-0.0282288,0.0112915,-0.00930786
768,0.00473022,0.00442505,0.0279236,-0.0279236,-0.0140381,-0.000152588,-0.0337219,0.0244141,-0.00427246
768,-0.00259399,0.0177002,0.00961304,0.01297,-0.00671387,0.00335693,-0.0231934,0.0114441,0.0222778
768,0.00808716,0.00976562,0.000610352,-0.00244141,-0.00106812,-0.0175476,0.0140381,-0.0112915,0.00289917
768,0.0230408,-0.012207,-0.0157166,0.000915527,0.0154114,-0.0242615,0.00549316,-0.0102234,-0.00579834
768,0.00762939,-0.00213623,-0.00411987,0.0593567,0.00259399,-0.0311279,-0.0154114,-0.0134277,-0.00259399
768,-0.0137329,0.00457764,0.0320435,-0.0119019,0.0143433,-0.0230408,0.00396729,-0.00152588,-0.00411987
769,0.0183105,0.0050354,0.0332642,-0.112457,0.00869751,0.00579834,0.0112915,-0.00793457,-0.0201416
769,0.00747681,0.00961304,-0.0120544,-0.194244,0.00564575,-0.00350952,0.0254822,0.0299072,0.0279236
769,-0.00335693,0.00656128,-0.0141907,-0.0639343,0.00656128,-0.0157166,-0.0219727,0.00534058,0.00686646
769,-0.00534058,0.0247192,-0.0126648,0.0949097,-0.00732422,0.00274658,-0.0291443,0.0274658,0.0115967
769,0.00244141,-0.0166321,-0.0257874,0.252686,0.0166321,0.0216675,-0.00228882,0.00305176,0.0137329
769,0.0141907,0.00610352,-0.0238037,0.263214,-0.0141907,0.0106812,-0.0177002,0.00839233,0.0335693
769,0.0256348,-0.0143433,0.00915527,0.170135,-0.0157166,0.00488281,0.000305176,0.00793457,0.0050354
769,0.0189209,-0.00167847,0.00473022,0.0784302,0.0250244,-0.0228882,0.017395,-0.00656128,0.0144958
769,0.00640869,-0.0123596,0.00808716,0.0189209,0.0428772,-0.0341797,0.0187683,0.0184631,0.0239563
769,0.0149536,-0.00549316,0.0186157,-0.00137329,0.0167847,-0.0331116,0.0219727,0.00701904,0.00564575
770,-0.0216675,-0.0382996,-0.00335693,-0.0450134,-0.00473022,-0.000457764,-0.0218201,0.0117493,-0.00259399
770,0.0228882,-0.019989,0.0247192,-0.0733948,0.0198364,-0.00320435,-0.00244141,-0.0143433,0.0306702
770,0.0289917,-0.0254822,0.0378418,-0.0857544,0.0204468,-0.0192261,-0.00869751,-0.0271606,-0.0370789
770,0.0132751,-0.0012207,0.0436401,-0.0733948,-0.00137329,0.00976562,0.0105286,0.00778198,0.0328064
770,0.00411987,-0.00991821,0.0332642,0.06073,0.0157166,-0.00366211,-0.00183105,0.012207,-0.0140381
770,-0.00366211,0.0198364,0.0427246,0.151825,0.0205994,0.01297,0.00747681,0.0306702,-0.00839233
770,0.017395,0.00549316,0.0216675,0.0669861,-0.0256348,0.0219727,-0.0141907,0.00823975,-0.012207
770,0.00167847,-0.00106812,0.0108337,0.0123596,-0.00350952,0.0514221,0.000610352,0.0331116,0.0135803
770,-0.0282288,0.0102234,0.032196,0.000762939,0.00564575,-0.000152588,0.0105286,0.00961304,0.040741
770,0.0216675,-0.00717163,0.00915527,-0.071106,-0.0164795,0.0109863,0.015564,0.0262451,0.00488281
771,-0.0247192,0.00518799,-0.00305176,-0.0405884,0.00839233,0.00900269,0.0175476,0.00747681,0.00473022
771,-0.00518799,-0.00823975,-0.00732422,-0.0469971,0.0146484,-0.0012207,-0.0212097,0.0198364,0.00335693
771,0.0105286,-0.0112915,-0.0100708,-0.00656128,-0.0105286,0.01297,0.00961304,-0.0123596,-0.0100708
771,0.010376,-0.0175476,0.00167847,0.0289917,-0.00457764,0.0152588,0.000915527,-0.0152588,0.0112915
771,0.0219727,0.0332642,0.00762939,-0.0453186,0.0219727,-0.0141907,0.00839233,0.0212097,0.0167847
771,0.00793457,0.00457764,-0.00823975,0.00228882,0.020752,-0.00854492,0.0221252,0.0012207,-0.00106812
771,0.00976562,0.00946045,-0.0100708,0.11795,0.0180054,0.014801,-0.0125122,0.00274658,-0.0195312
771,0.0117493,-0.00320435,-0.0196838,0.120087,0.0222778,0.0184631,0.0108337,-0.00762939,0.0299072
771,0.0088501,0.0177002,-0.0216675,0.0285339,0.0204468,0.00534058,0.00686646,0.00320435,0.0346375
771,0.00900269,0.0177002,-0.042572,-0.0125122,0.0427246,-0.0149536,0.0312805,0.00289917,0.0378418
772,0.00961304,-0.00228882,-0.00549316,-0.00717163,0.00289917,0.0114441,0.00106812,-0.0131226,0.0196838
772,0.0233459,-0.0201416,0.00198364,0.0314331,0.00869751,0.01297,-0.00457764,0.0119019,0.00549316
772,0.00869751,-0.00167847,0.0125122,0.0215149,-0.00350952,-0.00900269,0.0274658,-0.00976562,-0.0213623
772,-0.0050354,0.00366211,0.0386047,0.0326538,0.00244141,0.0187683,0.0149536,-0.0115967,0.01297
772,-0.0125122,-0.00930786,0.00518799,-0.0134277,0.0143433,0.0177002,0.0247192,-0.00854492,-0.00152588
772,-0.00747681,0.00900269,0.0050354,-0.0158691,-0.00610352,-0.00640869,-0.00473022,-0.00442505,0.0105286
772,0.0123596,0.0161743,-0.00335693,-0.00137329,0.00671387,0.0587463,0.00946045,0.00686646,0.00930786
772,0.0141907,0.00457764,0.0202942,-0.032959,0.0143433,0.00839233,-0.00350952,0.00930786,0.055542
772,0.0360107,0.0115967,0.0457764,-0.00747681,0.0105286,0.0114441,0.00991821,0.00274658,0.00350952
772,0.0364685,0.0375366,0.0405884,0.032196,0.022583,0.00396729,0.0268555,0.017395,-0.00778198
773,0.025177,-0.00183105,0.0587463,0.00244141,0.00335693,0.0228882,-0.00976562,-0.000152588,0.0276184
773,0.0410461,0.0244141,0.0402832,-0.0172424,0.0105286,0.00915527,0.0141907,0.000152588,0.0189209
773,-0.00183105,0.0453186,0.039978,-0.0210571,-0.00274658,-0.00305176,0.00595093,0.0108337,0.00442505
773,0.0157166,0.0167847,0.0291443,-0.0241089,-0.0285339,0.0254822,0.0120544,0.0187683,-0.0157166
773,0.0151062,0.0260925,0.0112915,0.0192261,-0.00717163,0.0234985,0.0038147,0.0175476,0.0318909
773,-0.00900269,0.0282288,-0.0221252,0.0392151,0.00473022,-0.00900269,-0.00518799,-0.000457764,-0.00411987
773,0.0062561,0.0361633,-0.0210571,0.108032,0.0161743,0.0288391,0.0186157,-0.014801,0.00320435
773,0.0183105,0.0102234,-0.0192261,0.139465,0.00579834,0.0088501,0.0180054,0.0123596,0.0108337
773,0.00747681,0.0135803,-0.0239563,0.0544739,-0.0109863,0.0332642,-0.000152588,0.0201416,0.0285339
773,-0.00137329,-0.00518799,0.0120544,0.00686646,-0.0219727,0.0294495,0.0132751,0.00961304,-0.00915527
774,-0.00366211,-0.0151062,-0.0152588,0.0157166,-0.00427246,0.00686646,0.00137329,-0.00396729,-0.00213623
774,-0.00717163,-0.027771,-0.00274658,0.00991821,0.00534058,0.010376,0.0164795,0.0146484,0.00640869
774,-0.00244141,-0.0218201,0.0131226,0.0494385,0.0273132,0.00274658,-0.0233459,0.0143433,0.000610352
774,0.00946045,-0.0228882,-0.0282288,0.091095,-0.00518799,0.012207,-0.0204468,0.00793457,0.0126648
774,0.00427246,-0.0234985,-0.0201416,0.111542,-0.0161743,0.0375366,-0.0050354,0.0164795,0.0283813
774,0.000457764,-0.00656128,-0.0172424,-0.0382996,-0.01297,0.00869751,0.00198364,-0.00488281,0.0270081
774,0.0109863,0.00564575,0.00564575,-0.141907,0.0125122,0.0218201,0.0262451,0.0141907,0.00427246
774,0.0050354,-0.00427246,-0.0201416,-0.260162,0.0111389,0.0111389,0.00335693,0.00717163,0.00991821
774,0.0247192,-0.0108337,0.00106812,-0.20813,0.0234985,0.0167847,0.000610352,0.014801,0.0241089
774,0.0224304,0.0228882,0.000915527,-0.0912476,0.019989,0.042572,0.00411987,-0.00244141,0.0340271
775,0.0247192,0.0192261,0.022583,-0.102386,0.0679016,0.00411987,0.0469971,-0.000915527,0.0253296
775,0.0190735,0.00335693,0.0178528,-0.055542,0.0416565,0.00823975,0.0415039,-0.00411987,0.00488281
775,0.00778198,0.020752,0.0154114,-0.0175476,0.0132751,0.00488281,0.0135803,0.0169373,0.00564575
775,0.0233459,-0.00961304,0.0238037,0.0292969,0.0442505,-0.00579834,0.0166321,0.0473022,-0.0175476
775,0.00198364,-0.00198364,0.0337219,0.0657654,0.0274658,0.00701904,0.0332642,0.00305176,0.0152588
775,0.0161743,-0.00747681,0.0283813,-0.155487,0.0169373,0.0230408,0.0428772,0.00854492,-0.0111389
775,0.00839233,0.0149536,0.0244141,-0.350494,0.0317383,0.00396729,0.0189209,0.0134277,0.0299072
775,0.017395,0.0164795,-0.00411987,-0.277557,0.0146484,0.0228882,0.00305176,0.00274658,0.018158
775,-0.00244141,-0.0164795,0.0279236,0.0808716,-0.00228882,-0.00137329,-0.0306702,0.0149536,0.0184631
775,0.0205994,0.0164795,0.0498962,0.26474,0.00137329,0.0184631,0.0204468,0.014801,0.00747681
776,-0.00213623,-0.0233459,0.0372314,0.167999,0.0224304,0.00915527,0.0205994,0.0289917,0.0184631
776,0.00137329,-0.0108337,0.00366211,0.294647,-0.00427246,0.000915527,0.0132751,0.00869751,-0.000915527
776,0.0160217,-0.00213623,0.00579834,0.564728,0.0108337,-0.00564575,-0.0143433,0.0132751,-0.0114441
776,0.0228882,0.0169373,0.00198364,0.370178,0.00183105,0.0323486,-0.00213623,0.00244141,0.0151062
776,-0.0109863,-0.00473022,0.0219727,0.113831,0.00213623,0.0363159,-0.0288391,-0.00946045,0.01297
776,-0.022583,-0.0143433,0.00915527,-0.018158,-0.00701904,0.0244141,0.015564,-0.00640869,-0.0163269
776,0.0106812,0.00457764,0.0140381,0.0325012,0.0012207,0.0038147,0.0367737,0.00579834,-0.0328064
776,-0.0126648,0.017395,0.0256348,-0.0802612,-0.0285339,0.0209045,0.0131226,0.0149536,-0.0012207
776,-0.00686646,0.00442505,-0.000152588,-0.203857,0.00396729,0.00900269,0.0114441,0.0190735,0.00778198
776,-0.0247192,0.039978,0.0471497,0.0894165,0.000762939,0.0257874,-0.0512695,0.0260925,0.0430298
777,0.0143433,-0.00137329,0.0242615,0.408936,-0.012207,0.0250244,-0.0265503,0.00946045,0.00747681
777,-0.00152588,0.0125122,0.0141907,0.116577,-0.0352478,0.0682068,-0.0466919,0.0183105,0.0167847
777,0.00839233,0.022583,-0.014801,-0.144348,-0.0154114,0.0262451,-0.00946045,0.00595093,0.00259399
777,-0.0012207,0.00411987,0.00518799,-0.109558,0.0495911,-0.0109863,0.0161743,0.0105286,-0.0100708
777,-0.0196838,0.0236511,-0.00595093,-0.225677,0.06073,-0.00427246,0.0288391,-0.0102234,0.00991821
777,-0.0108337,-0.0105286,-0.0088501,-0.312347,0.0897217,-0.00732422,0.0282288,0.0190735,0.0367737
777,-0.00198364,-0.0238037,-0.0128174,-0.26123,0.0604248,-0.0050354,0.0100708,0.0209045,0.0349426
777,0.0114441,-0.0163269,0.00793457,-0.0979614,0.0325012,0.000152588,0.0205994,0.00762939,0.0325012
777,-0.0213623,0.0172424,-0.000915527,-0.0454712,0.0283813,-0.00457764,-0.00442505,-0.00564575,0.00991821
777,-0.0050354,-0.0123596,-0.017395,0.0985718,0.0123596,0.0274658,0.0302124,-0.00915527,0.0137329
778,0.00106812,-0.0100708,0.0111389,0.198517,0.0160217,-0.0216675,0.0190735,0.00457764,0.0152588
778,-0.00808716,-0.0300598,0.0382996,0.176239,0.0378418,0.0149536,0.0131226,-0.0012207,0.0369263
778,-0.00976562,-0.0193787,-0.00198364,0.0860596,0.0308228,0.0212097,0.0337219,0.0117493,0.0123596
778,0.0143433,0.00991821,-0.00823975,0.0808716,0.0105286,0.000762939,-0.00518799,0.0154114,0.0151062
778,-0.01297,-0.00640869,0.0201416,0.0523376,-0.00457764,0.000457764,-0.0170898,-0.00167847,0.00427246
778,-0.0137329,-0.00976562,0.0302124,-0.0476074,0.00167847,0.0325012,0.0126648,0.00671387,0.0141907
778,0.0163269,-0.00518799,0.0205994,0.100708,0.000915527,0.040741,0.0198364,-0.00274658,0.0411987
778,-0.00534058,-0.00518799,0.0111389,0.0741577,-0.00366211,0.0157166,0.022583,0.010376,-0.010376
778,-0.00473022,0.00366211,-0.00518799,-0.165253,0.035553,-0.0210571,0.0556946,-0.0062561,0.0262451
778,-0.0117493,0.010376,-0.0215149,-0.232697,0.059967,-0.0234985,0.0460815,0.00427246,0.00854492
779,0.000610352,0.0112915,-0.0108337,-0.218506,0.0117493,-0.0062561,-0.000152588,0.0135803,0.0189209
779,-0.00427246,0.017395,0.00671387,-0.107422,-0.00717163,0.025177,-0.0183105,0,0.0172424
779,0.0012207,0.0178528,0.0204468,-0.0334167,-0.0151062,0.00228882,-0.0195312,0.00473022,0.0286865
779,-0.00473022,-0.00976562,0.00396729,0.0212097,-0.0109863,-0.00610352,0.0186157,-0.00396729,0.00564575
779,-0.0146484,0.00671387,0.0263977,0.0521851,-0.012207,0.0244141,0.022583,0.0151062,0.0259399
779,-0.0154114,0.0189209,0.020752,0.296478,-0.030365,0.0282288,-0.0106812,-0.00137329,0.0213623
779,0.0144958,0.00274658,0.040741,0.508881,-0.0523376,0.0265503,-0.019989,0.0152588,-0.0210571
779,-0.00213623,0.00854492,0.0285339,0.160065,-0.0396729,0.0189209,-0.0262451,0.00549316,0.0134277
779,-0.0192261,0.0163269,0.0144958,-0.163574,-0.00793457,-0.000152588,0.0128174,0.00854492,-0.00183105
779,-0.0105286,0.0128174,0.0115967,-0.136566,0.0323486,-0.0341797,0.0392151,-0.0125122,0.0175476
780,-0.00656128,0.00396729,0.0227356,0.0779724,-0.0138855,-0.00366211,-0.0134277,0.018158,0.00991821
780,-0.00183105,0.0141907,0.0367737,0.373688,-0.0177002,0.0300598,-0.00823975,-0.00656128,0.0308228
780,0.0112915,-0.0105286,0.0402832,0.256195,0.0108337,0.0593567,-0.000457764,0.0262451,-0.00854492
780,0.0193787,-0.00640869,0.0494385,-0.182953,0.0253296,-0.012207,0.00228882,0.0123596,-0.0254822
780,0.0180054,-0.00808716,-0.000305176,-0.417786,-0.00961304,-0.00717163,0.0263977,0.0242615,0.0123596
780,0.00808716,0.0267029,0.0158691,-0.517273,0.0491333,0,0.0177002,0.00335693,-0.0169373
780,0.00427246,-0.00732422,0.0111389,-0.458221,0.0453186,-0.00854492,-0.00442505,-0.00274658,-0.0196838
780,-0.0273132,0.00198364,-0.00427246,0.136108,0.0114441,-0.0105286,-0.000762939,0.00930786,0.00701904
780,0.0163269,-0.00411987,0.00350952,0.18631,0.00457764,-0.00778198,0.000152588,0.00671387,-0.0221252
780,0.00946045,-0.00823975,0.00518799,0.000915527,0.00915527,-0.00457764,0.0299072,-0.00488281,-0.0259399
781,-0.0125122,-0.00854492,0.00900269,0.0375366,0.0389099,-0.000457764,0.0228882,0.00991821,-0.0135803
781,0.00244141,0.0144958,0.020752,0.0714111,0.0405884,-0.0186157,0.00274658,0.0189209,-0.0112915
781,-0.00167847,0.00686646,0.050354,0.0440979,0.0212097,0.0157166,0.00595093,0.00549316,-0.0294495
781,0.0250244,0.0268555,0.0369263,0.136566,0.0250244,0.0169373,0.00274658,0.0141907,0.0228882
781,0.0296021,-0.000152588,0.0312805,0.0367737,-0.00717163,0.037384,0.0140381,0.00732422,-0.0151062
781,0.0434875,0.00900269,0.0469971,-0.379639,0.0418091,0.00793457,0.0180054,0.0317383,-0.0119019
781,0.0376892,0.0233459,0.0291443,-0.504608,0.0384521,-0.00183105,0.0357056,0.0108337,-0.0183105
781,0.0404358,0.000457764,0.0360107,0.0186157,0.00411987,0.0216675,0.00671387,-0.00778198,0.00213623
781,0.0331116,0.00640869,0.0389099,0.149231,-0.0209045,-0.00656128,0.0154114,0.0256348,-0.0367737
781,0.0483704,0.00549316,0.00808716,-0.0495911,-0.0408936,0.0201416,0.0143433,-0.0151062,-0.0364685
782,0.0369263,0.012207,0.0332642,0.163574,-0.0518799,0.0489807,-0.0410461,-0.0224304,0.0138855
782,0.0352478,0.00930786,-0.00335693,0.160522,-0.0502014,0.0395203,-0.0395203,-0.000915527,0.00198364
782,0.00686646,0.0350952,0.0361633,0.36377,-0.0357056,0.0360107,-0.0012207,0.00442505,-0.00808716
782,0.00839233,0.0100708,0.0276184,0.48172,0.00183105,-0.00244141,0.0128174,0.0270081,-0.0210571
782,0.0357056,-0.00198364,0.0401306,0.250549,0.0221252,-0.0120544,0.00747681,0.00183105,0.0228882
782,0.0328064,-0.00854492,0.0253296,-0.0408936,0.0215149,-0.01297,0.0227356,-0.00717163,-0.0366211
782,0.0453186,-0.0186157,0.00457764,-0.279694,0.0550842,-0.0239563,0.0408936,-0.00930786,-0.000610352
782,0.0367737,-0.0128174,0.000305176,-0.209198,0.0602722,0.00198364,0.0265503,-0.0169373,0.0132751
782,0.0201416,-0.0105286,-0.00946045,-0.0590515,0.04776,-0.000915527,0.0038147,0.00900269,-0.00213623
782,0.0177002,0.00167847,0.0184631,-0.295868,0.0505066,-0.0038147,0.00900269,0.00610352,-0.00762939
783,0.0604248,-0.0112915,0.00457764,-0.45105,0.040741,-0.00396729,0.0138855,-0.0100708,0.00549316
783,0.0152588,-0.0210571,-0.0216675,-0.137634,0.0189209,-0.0248718,-0.000762939,-0.0289917,0.0289917
783,0.0273132,0.00152588,-0.000610352,0.0772095,0.0228882,0.0309753,-0.00289917,0.0215149,-0.00839233
783,0.0312805,0.0050354,0.000762939,0.585175,0.0346375,0.00900269,0.00167847,-0.00396729,-0.00671387
783,0.0309753,-0.00839233,0.00991821,0.354004,0.0170898,0.0151062,0.0088501,-0.0279236,0.0326538
783,0.0163269,-0.0299072,0.0161743,0.0546265,0.0320435,0.00640869,0.0271606,0.00991821,0.000915527
783,0.0288391,-0.00961304,0.0228882,0.0617981,0.0358582,-0.000457764,0.0384521,0.00213623,0.0149536
783,0.0239563,0.0132751,0.0170898,0.0733948,0.00930786,0.0149536,-0.0109863,0.0134277,0.020752
783,0.0230408,0.0216675,0.0108337,0.198059,-0.00976562,0.0343323,0.010376,0.00762939,0.0106812
783,0.00411987,0.00213623,0.0447083,-0.0424194,0.00488281,0.00961304,0.00961304,0.00457764,0.00869751
784,0.0119019,-0.00793457,0.0128174,-0.10498,0.052948,-0.00946045,0.0331116,0.00549316,0.0416565
784,0.0236511,0.00228882,0.0198364,-0.0933838,0.0317383,-0.0318909,0.0248718,-0.0119019,-0.0144958
784,0.0325012,-0.0111389,0.00640869,-0.0419617,0.00900269,-0.00305176,0.0318909,0.0123596,-0.0131226
784,0.010376,0.014801,0.0170898,-0.000915527,0.00640869,-0.012207,0.0180054,-0.0201416,-0.00640869
784,0.010376,-0.00366211,0.0134277,0.0202942,-0.0247192,0.0105286,0.00732422,0.00930786,0.0279236
784,0.0276184,0.0248718,0.0311279,0.0344849,0.0119019,-0.0132751,0.0242615,0.00747681,0.00640869
784,0.0357056,0.000457764,0.00457764,0.0218201,-0.0170898,0.0332642,0.0128174,-0.0050354,0.00640869
784,0.0402832,0.00717163,0.00473022,-0.0410461,-0.00473022,0.00579834,0.0224304,0.0204468,0.0117493
784,0.0379944,0.0196838,0.00274658,0.0175476,0.00793457,0.017395,0.019989,-0.0137329,0.00854492
784,0.00305176,0.014801,-0.00656128,-0.00717163,-0.000457764,0.00335693,0.0288391,0.000915527,0.00869751
785,0.0137329,0.0215149,0.0111389,0.00335693,0.0312805,0.00778198,-0.0218201,0.0112915,-0.00869751
785,0.010376,-0.00183105,0.0111389,0.00595093,-0.00762939,-0.00854492,-0.00808716,0.00411987,0.030365
785,0.0245667,0.00656128,0.0114441,0.0289917,-0.0135803,0.0109863,0.00137329,-0.00198364,-0.00854492
785,0.0479126,-0.0190735,0.0186157,0.00778198,0.0186157,0.0138855,-0.0151062,0.00976562,0.00808716
785,0.0263977,0.00961304,0.0410461,0.00549316,-0.0175476,0.0230408,-0.0250244,0.0340271,-0.00991821
785,0.00701904,0.0297546,0.0111389,-0.0657654,0.0230408,0.0050354,0.0274658,0.00701904,0.00137329
785,0.00793457,0.0131226,0.0205994,-0.112,0.00595093,0.00946045,0.0050354,0.00823975,0.00488281
785,-0.0160217,0.00686646,0.0230408,-0.0366211,0.0125122,0.0108337,0.0323486,0.00656128,0.0123596
785,0.0231934,0.0325012,0.0395203,0.00610352,0.0120544,0.0299072,0.0233459,-0.00717163,-0.00686646
785,0.0291443,0.0440979,0.0289917,-0.0668335,0.00259399,0.0485229,-0.00411987,-0.0141907,-0.0209045
786,0.0360107,0.00610352,0.00534058,-0.0874329,0.00762939,-0.00778198,-0.00427246,-0.00686646,-0.00656128
786,-0.00213623,0.00839233,0.0169373,0.0765991,-0.00518799,0.0160217,0.00946045,0.0242615,-0.00198364
786,0.00137329,0.00640869,0.0158691,0.134277,0.0138855,0.00747681,0.0149536,0.00152588,0.0158691
786,0.00350952,0.017395,0.0213623,0.10376,-0.0141907,0.00823975,-0.0204468,0.027771,0.00183105
786,-0.015564,0.0012207,0.0224304,0.144043,0.00350952,0.00823975,-0.0160217,-0.00656128,0.00686646
786,-0.00595093,0.00854492,0.000610352,0.0869751,0.00778198,-0.00701904,0.00564575,-0.0244141,0.00213623
786,-0.0012207,0.0216675,0.0408936,0.0283813,-0.00289917,0.00106812,0.015564,-0.000305176,-0.00183105
786,-0.00534058,0.0175476,0.01297,0.00656128,0.0119019,-0.0152588,0.000610352,0.00137329,0.0163269
786,-0.00793457,0.0190735,0.012207,0.174255,-0.0256348,0.0233459,-0.0050354,0.0100708,-0.00717163
786,0.0146484,-0.0012207,0.0256348,0.0143433,-0.00457764,0.0242615,-0.01297,-0.00259399,0.0102234
787,-0.00946045,0.0361633,0.0038147,-0.128784,-0.00305176,-0.0106812,0.0137329,0.012207,0.0131226
787,0.00335693,0.0131226,0.0297546,-0.146484,0.0325012,0.0146484,0.0157166,0.000457764,-0.0195312
787,0.0283813,0.0190735,-0.00534058,0.0415039,0.00930786,-0.0115967,0.0241089,0.01297,0.0166321
787,0.0088501,-0.0123596,0.0393677,-0.0476074,0.0038147,0.0285339,-0.025177,-0.0193787,0.0114441
787,0.0288391,-0.00228882,0.0196838,-0.151978,-0.00717163,0.00854492,0.00396729,0.00701904,0.00869751
787,0.0384521,0.0247192,0.0241089,0.0123596,0.0222778,0.00183105,0.0177002,0.0233459,0.0177002
787,0.0338745,-0.000457764,0.0344849,0.254211,0.0125122,0.00854492,0.0112915,0.0062561,0.0158691
787,0.0241089,0.0244141,0.0474548,0.186768,0.0219727,-0.0184631,0.0463867,0.00457764,0.0172424
787,0.00183105,0.0161743,0.0219727,0.0650024,0.0268555,0.00808716,-0.00549316,-0.00106812,0.0346375
787,0.0271606,-0.00854492,0.0250244,-0.0802612,0.00747681,-0.00106812,0.0193787,0.0160217,0.0131226
788,-0.00671387,0.0111389,0.019989,-0.216675,-0.0419617,0.0178528,0.00259399,0.0163269,-0.00213623
788,0.0244141,0.0128174,0.0344849,-0.173798,-0.0350952,0.00778198,-0.0125122,0.00198364,0.0285339
788,0.0119019,-0.00228882,0.0158691,0.228577,-0.00488281,0.00717163,0.0117493,0.00701904,0.00366211
788,-0.00137329,0.0224304,0.0428772,0.0939941,-0.00259399,0.00274658,-0.0260925,-0.0271606,0.0088501
788,-0.012207,0.00549316,0.0164795,0.0489807,0.0144958,0.0318909,-0.0146484,-0.00396729,-0.0115967
788,0.0178528,0.00808716,0.017395,0.0454712,-0.00259399,0.0190735,-0.00564575,-0.0205994,-0.0151062
788,0.0234985,-0.000915527,-0.00305176,0.0387573,0.0279236,-0.00656128,0.0296021,-0.000457764,0.00396729
788,0.010376,-0.00686646,-0.00305176,0.00259399,0.0309753,0.0169373,-0.0141907,-0.0105286,0.00915527
788,-0.00137329,-0.00579834,0.0282288,-0.0386047,0.0462341,0.0141907,0.00732422,-0.000610352,-0.00595093
788,0.0193787,-0.00366211,0.0062561,-0.058136,0.0361633,-0.0100708,-0.0050354,0.0253296,-0.0062561
789,0.0212097,0.0125122,0.027771,-0.0999451,0.0198364,0.0288391,0.0128174,-0.00106812,-0.0311279
789,0.0170898,0.0178528,0.0254822,-0.107117,0.0234985,0.00930786,0.00549316,0.0213623,0.00274658
789,0.0149536,0.0387573,0.0112915,0.0871277,0.0265503,-0.00457764,0.0395203,0.00686646,0.00488281
789,0.00564575,0.030365,0.0276184,0.189972,0.0210571,0.00869751,0.0239563,0.00747681,0.0196838
789,0.0234985,0.0418091,0.0527954,0.116272,0.017395,0.0437927,0.00152588,0.00106812,0.0177002
789,0.0341797,0.0317383,0.0257874,0.0453186,0.0283813,0.0135803,0.0231934,-0.00274658,-0.0166321
789,0.0384521,0.00976562,0.0260925,-0.0741577,-0.0143433,-0.00228882,0.00579834,0.0100708,-0.00839233
789,0.0138855,0.030365,-0.00640869,-0.155487,0.0106812,-0.0111389,-0.000762939,-0.01297,0.0108337
789,0.0410461,0.0279236,0.00198364,-0.0730896,0.0410461,0.0175476,-0.00320435,0.0169373,0.0163269
789,0.0247192,0.0108337,-0.0152588,0.125122,0.0244141,-0.0213623,0.00396729,0.00396729,-0.00488281
790,0.000457764,0.00839233,-0.00610352,0.173187,0.00762939,0.0297546,-0.00534058,-0.00411987,-0.00732422
790,0.0164795,-0.00167847,-0.0169373,0.137329,-0.00534058,0.0184631,0.0193787,-0.00320435,0.0167847
790,0.0108337,0.0332642,-0.0224304,0.0343323,0.00488281,-0.000610352,0.00976562,0.0236511,0.00854492
790,0.00915527,0.0151062,-0.00610352,-0.141754,0.00564575,-0.000305176,0.0248718,-0.00167847,0.0389099
790,-0.0253296,0.0508118,-0.0344849,-0.174561,0.0231934,0.00289917,0.0141907,0.00488281,-0.00762939
790,-0.0190735,0.0132751,-0.0187683,-0.0753784,0.0196838,0.0238037,0.00778198,0.0128174,0.00411987
790,0.0154114,0.0234985,-0.0196838,0.027771,0.0236511,0.0242615,0.010376,0.00396729,0.0254822
790,0.00747681,0.018158,-0.0132751,0.164337,0.020752,0.00244141,0.0151062,0.00564575,0.00686646
790,-0.00488281,0.0299072,-0.00686646,0.0971985,0.0180054,0.0337219,-0.00518799,0.00289917,-0.00732422
790,0.0358582,0.0418091,0.000457764,0.0921631,0.0317383,-0.0128174,0.0247192,0.0115967,0.01297
791,0.0192261,0.0248718,-0.0453186,0.0387573,-0.0253296,0.0241089,0.00656128,0.00869751,-0.000152588
791,0.0263977,0.00991821,-0.0202942,-0.0332642,-0.0236511,0.0112915,-0.00488281,0.00335693,-0.00259399
791,0.0375366,0.0209045,-0.0386047,0.0184631,-0.0294495,0.0138855,-0.0215149,0.00457764,0.0218201
791,0.0279236,0.0189209,-0.0163269,0.0996399,-0.0457764,0.000152588,0.0125122,-0.00991821,-0.0175476
791,0.0222778,0.0463867,-0.0495911,-0.141296,-0.0115967,-0.0134277,0.000915527,-0.00213623,0.0289917
791,0.00534058,0.014801,-0.0415039,-0.122528,-0.0387573,0.0204468,-0.022583,0.000305176,0.018158
791,0.0088501,0.0204468,-0.0341797,-0.200958,-0.012207,0.00198364,0.0268555,0.00427246,0.0239563
791,-0.0146484,0.00869751,-0.0224304,-0.207825,0.00457764,0.0227356,0.00686646,-0.000610352,0.0100708
791,-0.0135803,0.00747681,-0.0360107,0.0471497,0.0395203,0.0100708,0.00518799,-0.00900269,-0.0111389
791,0.0344849,-0.012207,-0.0311279,0.141296,0.0283813,-0.0102234,-0.00762939,-0.00793457,0.00564575
792,-0.0354004,0.0379944,-0.0375366,-0.000457764,0.0212097,0.00350952,0.0332642,0.0119019,0.0125122
792,-0.0180054,0.00656128,-0.0421143,0.0314331,0.0262451,0.00869751,0.0186157,0.0157166,0.0299072
792,-0.00305176,0.00854492,-0.0210571,0.0604248,0.00640869,0.0125122,0.00595093,0.0169373,0.00335693
792,0.0038147,0.0216675,-0.0468445,0.135345,0.050354,0.0157166,-0.000915527,0.00335693,-0.012207
792,0.00991821,0.0221252,-0.0123596,0.196381,0.0680542,-0.00610352,0.0183105,-0.000762939,-0.0154114
792,0.0157166,0.0376892,-0.0257874,0.0968933,0.0314331,-0.000305176,-0.0108337,0.0123596,0.0196838
792,-0.0132751,-0.00106812,-0.0288391,0.0163269,0.0286865,0.00823975,0.0213623,0.00610352,0.00534058
792,-0.00213623,0.014801,-0.052948,0.052948,0.0134277,0.0164795,0.00839233,-0.000457764,0.0209045
792,0.00762939,0.0144958,-0.0151062,0.045166,0.025177,0.0230408,-0.00442505,0.0128174,0.00488281
792,0.00366211,0.0469971,-0.0149536,0.0117493,0.0334167,0.00961304,0.00823975,0.0154114,0.0231934
793,-0.000915527,0.0508118,-0.0253296,0.0109863,0.00686646,-0.00686646,-0.00198364,0.0138855,0.00946045
793,0.0317383,0.0193787,-0.032196,0.025177,0.0382996,0.00366211,0.0357056,0.00808716,0.00183105
793,-0.00274658,0.0119019,-0.0172424,0.00854492,0.0334167,0.0187683,0.00823975,0.00640869,0.0271606
793,-0.000305176,0.015564,-0.00473022,0.000457764,-0.000457764,0.025177,0.00335693,-0.0167847,0.0434875
793,0.0105286,0.0141907,-0.0331116,-0.0170898,0.00701904,0.0221252,0.0125122,0.0112915,0.0160217
793,0.0360107,0.00930786,-0.0444031,-0.000915527,-0.00610352,0.0320435,-0.000762939,0.0132751,-0.00274658
793,0.00244141,0.0209045,-0.0256348,-0.0151062,-0.00213623,0.0163269,-0.00701904,0.0012207,-0.0161743
793,0.0369263,0.00183105,-0.0418091,-0.0154114,-0.0126648,0.0154114,0.0178528,-0.000762939,0.0180054
793,0.0265503,0.0247192,-0.0190735,-0.0819397,-0.00854492,0.0228882,0.00762939,0.0119019,0.00198364
793,0.0312805,0.00915527,-0.0105286,0.00289917,-0.00869751,0.027771,0.0222778,0.017395,0.0172424
794,0.00549316,0.0128174,-0.0234985,0.0242615,-0.00320435,0.0222778,-0.0062561,0.0434875,-0.000915527
794,0.0111389,0.0337219,-0.014801,-0.0212097,0.00640869,-0.00610352,0.0125122,-0.00579834,0.00839233
794,-0.0192261,0.0195312,-0.0405884,0.0267029,0.00930786,-0.0253296,-0.00335693,0.00976562,0.0270081
794,-0.0309753,0.00823975,0.0088501,0.122833,0.0213623,-0.00579834,-0.00488281,0.0326538,0.00198364
794,0.00610352,0.0202942,0.00488281,-0.00442505,0.0415039,0.00900269,-0.00396729,0.0209045,-0.00183105
794,-0.0120544,0.0154114,-0.00137329,-0.0285339,0.0270081,0.0265503,-0.000457764,0.0187683,0.0309753
794,-0.00350952,0.020752,-0.0102234,0.0520325,0.00152588,-0.00183105,0.0161743,-0.00961304,-0.000915527
794,-0.0105286,0.0401306,0.00198364,-0.0889587,0.0160217,0.0172424,-0.0210571,-0.00106812,0.0169373
794,0.00457764,0.0154114,-0.0117493,0.0102234,0.00518799,0.0274658,0.0230408,0.00778198,0.00244141
794,-0.00778198,0.00900269,-0.012207,0.0447083,0.00778198,0.0242615,0.0210571,0.0213623,0.0183105
795,0.0231934,-0.0112915,-0.0134277,-0.100861,0.00396729,0.0109863,0.0140381,0.00213623,0.00518799
795,0.0125122,0.0038147,-0.00640869,-0.0947571,0.019989,0.0364685,0.0198364,0.0408936,0.0254822
795,0.00350952,0.014801,0.0167847,-0.03479,0.0125122,-0.0112915,0.018158,0.0154114,-0.0012207
795,0.0143433,0.0195312,0.00701904,-0.0524902,-0.0195312,0.00595093,0.00946045,0.0108337,0.0448608
795,0.0361633,0.00991821,0.00747681,-0.13855,0.0244141,-0.00442505,-0.00701904,0.0062561,0.030365
795,0.0300598,0.0151062,0.01297,-0.171051,-0.00823975,0.0137329,-0.0135803,0.0209045,0.0309753
795,0.0112915,-0.000610352,0.0183105,0.148163,-0.0111389,0.0389099,0,-0.0012207,-0.0115967
795,0.0141907,0.0163269,-0.0163269,0.374298,-0.0190735,0.00106812,0.00717163,0.019989,-0.012207
795,0.0105286,0.0231934,0.0190735,0.228577,-0.000457764,0.0262451,0.0143433,0.01297,-0.00900269
795,0.00671387,0.0418091,-0.0204468,-0.0215149,0.0184631,0.0114441,0.0137329,0.0289917,0.0175476
796,-0.00213623,-0.00274658,0.0100708,-0.265961,0.0038147,0.0106812,-0.0180054,0.0320435,0.00823975
796,0.00305176,0.0198364,-0.0102234,-0.170441,0.0115967,0.00671387,0.0209045,0.000305176,-0.0268555
796,0.0154114,0.0338745,-0.00808716,0.206146,0.020752,0.0222778,0.0111389,-0.00289917,0.014801
796,-0.00183105,0.022583,-0.0137329,0.26001,0.0453186,0.0166321,0.000915527,0.00640869,0.0154114
796,0.00213623,0.00839233,0.0172424,-0.00976562,0.00106812,-0.0231934,0.00457764,0.0411987,0.0210571
796,0.00473022,0.00213623,0.00366211,0.0393677,0.0244141,0.00946045,0.0213623,0.0134277,0.0038147
796,0.045929,0.0238037,0.0108337,0.108795,0.0192261,-0.0157166,-0.000152588,0.0137329,0.0227356
796,0.0170898,0.00869751,-0.00473022,0.0630188,-0.0180054,0.0263977,-0.000915527,0.00457764,0.00106812
796,0.0117493,0.0227356,-0.0157166,0.0189209,0.00305176,0.0108337,0.00396729,0.0294495,0.00198364
796,0.00320435,0.015564,-0.0201416,-0.0338745,0.0447083,0.00396729,0.012207,0.0132751,0.0169373
797,0.00549316,0.0144958,0.0160217,-0.0718689,0.0138855,0.00579834,0.0146484,0.0138855,-0.0106812
797,0.01297,0.00640869,0.0169373,-0.0508118,0.0178528,0.0294495,-0.0128174,0.032196,-0.00549316
797,0.0230408,-0.00152588,0.0125122,-0.00793457,0.0152588,0.0263977,-0.00366211,0.00564575,-0.0105286
797,0.0212097,0.0219727,0.00823975,0.00289917,0.017395,-0.00167847,0.0242615,-0.00717163,0.00274658
797,0.0167847,0.0210571,0.0154114,0.00747681,0.027771,-0.00152588,0.0254822,0.0126648,0.00823975
797,-0.00396729,0.01297,0.0120544,0.0267029,0.00213623,0.00228882,0.0166321,0.0276184,0.00762939
797,0.0123596,0.00518799,0.0166321,0.010376,-0.00152588,0.0189209,0.00747681,-0.00518799,0.0254822
797,0.022583,0.00457764,0.0128174,-0.0311279,0.0161743,0.0137329,-0.00335693,0.00686646,0.0131226
797,0.0228882,0.0244141,0.00106812,-0.0178528,0.00305176,0.00823975,0.0131226,0.0253296,0.00152588
797,0.00473022,0.0169373,0.0178528,-0.00640869,0.0115967,-0.0250244,0.00579834,0.019989,0.00610352
798,0.00473022,0.0256348,0.0396729,-0.0100708,0.0111389,0.00915527,0.0167847,0.0231934,0.014801
798,0.00778198,-0.00198364,0.0273132,-0.0656128,0.00549316,0.0245667,0.022583,0.00320435,0.0437927
798,-0.00457764,-0.00457764,0.0274658,-0.0506592,0.0140381,0.0354004,-0.00717163,0.00839233,0.0115967
798,0.0212097,0.00579834,0.0460815,-0.0115967,-0.0202942,-0.00228882,0.0125122,0.00808716,0.0134277
798,0.0270081,0.0178528,0.0167847,-0.0256348,0.00564575,0.0112915,0.0012207,-0.000457764,-0.0137329
798,0.0120544,0.0131226,0.00289917,-0.055542,0.0038147,0.00793457,0.0231934,0.00610352,-0.00167847
798,0.000762939,0.0161743,0.0108337,-0.055542,0.0196838,0.0111389,0.012207,0.0119019,-0.0151062
798,-0.0114441,0.00900269,0.0134277,0.0360107,0.0236511,0.0170898,0.00335693,0.0137329,0.01297
798,-0.0106812,-0.0160217,0.0105286,0.106659,-0.0163269,0.0299072,-0.01297,0.0210571,0.0201416
798,0.0166321,-0.00564575,0.0239563,0.0965881,0.0247192,0.00778198,0.00457764,0.0108337,0.00579834
799,-0.000152588,0.00457764,0.0302124,0.04776,-0.00335693,0.0123596,-0.00228882,0.027771,0.00320435
799,0.0205994,0.0140381,0.00289917,-0.00473022,0.00839233,-0.0135803,-0.0012207,0.00366211,0.0190735
799,0.0163269,-0.000915527,0.0285339,0.0134277,0.00656128,-0.00579834,-0.000305176,0.0141907,0.0411987
799,0.00564575,0.00137329,0.01297,-0.0523376,0.00289917,-0.00350952,-0.0195312,0.0119019,0.0128174
799,0.0141907,0.00534058,0.0149536,-0.113525,-0.00686646,0.00411987,-0.0193787,-0.00518799,0.0259399
799,0.00793457,0.0317383,0.0332642,0.0132751,-0.0115967,0.0250244,0.0062561,0.0267029,0.0038147
799,0.0115967,0.0190735,0.0302124,0.0712585,-0.00274658,-0.0230408,0.0190735,0.010376,0.0152588
799,0.0228882,0.0401306,0.032959,0.125732,0.0167847,0.00335693,-0.0038147,0.0062561,0.0115967
799,0.00946045,0.0143433,0.0382996,0.0610352,0.0294495,0.0108337,0.0198364,0.0216675,-0.00564575
799,0.0192261,-0.0038147,0.0253296,0.0700378,0.00106812,0.0469971,0.0209045,-0.0120544,0.00564575
800,0.00427246,0.0276184,0.01297,0.0337219,-0.00106812,-0.00167847,0.0123596,0.0315857,0.0131226
800,0.0239563,-0.00488281,0.0105286,-0.050354,-0.00671387,-0.0209045,0.0242615,0.015564,-0.00778198
800,0.017395,-0.0117493,0.0263977,-0.0866699,0.00152588,0.00488281,0.0296021,0.0204468,0.0349426
800,0.00488281,-0.00457764,0.0117493,-0.0840759,0.00595093,0.0193787,0.00640869,0.0198364,0.0192261
800,0.0335693,0.00213623,0.0146484,-0.0396729,0.0364685,0.00106812,-0.0108337,0.0166321,0.0260925
800,0.0253296,0.00213623,0.0358582,-0.0241089,-0.00808716,0.00274658,-0.0106812,0.025177,0.0323486
800,0.0204468,-0.0012207,0.0187683,0.0256348,0.0471497,0.00793457,0.0144958,0.0100708,-0.00335693
800,0.0209045,0.00946045,0.0178528,0.0300598,-0.00457764,0.0088501,0.0169373,0.0239563,0.00946045
800,0.014801,0.00839233,0.0292969,0.0250244,0.00564575,0.0497437,0.0038147,-0.0248718,0.00991821
800,0.038147,0.00854492,0.0367737,0.0871277,-0.00534058,0.0587463,-0.0144958,0.0149536,0.0152588
801,0.0236511,0.0177002,0.0454712,0.0465393,0.0105286,0.0524902,0.000152588,0.0144958,0.0254822
801,0.0238037,-0.00518799,0.0390625,-0.000610352,0.0187683,0.0616455,0.00976562,-0.00732422,-0.00869751
801,0.018158,0.00228882,0.0312805,0.065155,-0.00213623,0.0170898,-0.00564575,-0.0105286,0.0152588
801,0.00610352,0.0172424,0.0393677,0.0982666,0.00244141,0.00579834,0.025177,-0.0244141,0.000305176
801,0.00961304,0.00534058,0.0259399,0.0227356,0.0146484,-0.0314331,0.0294495,0.0283813,0.0100708
801,0.00152588,0.00961304,0.0511169,-0.0302124,0.0404358,-0.0215149,0.0212097,0.0267029,0.00823975
801,-0.00946045,0.0187683,0.0495911,-0.0308228,0.0364685,-0.0137329,0.0012207,0.0216675,0.00671387
801,0.0152588,0.0161743,0.0215149,-0.0137329,0.0398254,-0.000915527,-0.00228882,0.00762939,-0.000457764
801,0.00274658,0.0183105,0.0201416,0.025177,-0.00427246,-0.0163269,0.00686646,0.0149536,0.018158
801,0.0038147,0.0106812,-0.0140381,-0.0216675,0.0117493,0.0215149,0.0141907,0.0393677,0.0393677
802,0.00549316,0.0248718,0.0244141,-0.00579834,0.01297,0.0137329,0.00717163,0.0164795,0.00549316
802,0.0265503,0.0180054,0.0300598,0.0213623,0.00579834,0.0364685,0.0125122,0.0062561,0.0288391
802,0.0170898,0.00320435,0.0527954,0.0531006,-0.00656128,0.0204468,0.00473022,0.000915527,0.0224304
802,0.0257874,0.012207,0.0538635,0.0416565,-0.000305176,0.03479,0.0137329,-0.00152588,0.00808716
802,-0.000610352,0.0352478,0.0166321,-0.0875854,0.00732422,-0.0213623,0.0012207,0.00259399,-0.00137329
802,0.0100708,-0.00137329,0.0588989,-0.0241089,0.0088501,-0.00274658,0.00640869,0.0163269,0.00244141
802,0.0038147,0.00549316,0.0306702,0.105591,0.00854492,0.0553894,-0.00167847,0.00961304,0.00427246
802,0.0100708,0.0280762,0.0512695,0.0088501,0.0012207,0.0430298,0.00808716,0.0280762,0.0268555
802,0.0175476,-0.00595093,0.0360107,-0.0985718,0.00793457,0.0267029,0.00717163,0.00976562,0.0375366
802,-0.00320435,0.0100708,0.0489807,0.0505066,0.00137329,0.0286865,-0.0108337,0.00488281,0.00778198
803,0.0175476,0.0193787,0.0271606,0.0485229,-0.00289917,0.00518799,0.0111389,0.0187683,-0.0105286
803,-0.0123596,0.0131226,0.0338745,-0.0521851,0.0212097,0.0215149,0.00854492,0.0238037,0.0306702
803,0.0134277,-0.00213623,0.0315857,-0.134277,0.0050354,0.0177002,0.0350952,-0.0108337,0.00335693
803,0.00915527,0.0257874,0.0164795,-0.209045,0.000152588,0.0341797,0.00930786,-0.0183105,-0.00228882
803,0.018158,0.0123596,0.00335693,-0.0247192,-0.00228882,0.0300598,0.00137329,0.0119019,0.014801
803,0.0125122,-0.00595093,0.00579834,-0.0642395,0.0137329,0.0149536,0.00656128,0.0146484,0.0231934
803,0.00411987,0.0125122,0.0201416,-0.115967,-0.00152588,-0.00762939,0.0114441,0.0242615,0.0379944
803,-0.0170898,0.0125122,-0.00579834,-0.0167847,0.0430298,-0.00320435,0.00686646,0.0244141,0.0254822
803,0.0262451,0.00488281,0.00762939,0.168457,0.0196838,-0.00671387,-0.000762939,0.0117493,0.0154114
803,0.0228882,0.0361633,-0.000152588,0.224609,0.0164795,0.0283813,0.0115967,0.0154114,0.012207
804,0.0215149,0.0108337,-0.00411987,0.106506,0.0241089,0.00488281,0.0149536,0.00930786,0.0151062
804,0.012207,0.00442505,-0.0241089,0.102081,-0.0125122,-0.0128174,0.00991821,0.017395,0.0259399
804,0.0114441,-0.00427246,0.00701904,0.109406,0.00488281,0.0183105,0.0123596,0.0256348,0.00991821
804,0.0126648,-0.00610352,-0.00869751,0.0245667,0.0172424,0.0157166,0.0123596,-0.00518799,-0.00839233
804,0.0108337,0.00640869,0.0169373,0.015564,0.0144958,-0.0050354,0.0219727,0.0193787,-0.000457764
804,0.0105286,0.0190735,-0.00915527,-0.00427246,0.0424194,-0.0146484,0.0248718,-0.00457764,0.0131226
804,-0.000457764,0.0128174,0.00534058,0.0379944,0.0183105,-0.0524902,0.0354004,0.0256348,-0.00106812
804,0.00350952,0.0135803,-0.00686646,0.0460815,-0.0143433,-0.057373,0.0143433,0.0268555,0.0125122
804,0.0164795,0.00152588,-0.00747681,0.00152588,-0.0227356,-0.068512,0.0231934,0.00335693,0.00869751
804,0.0291443,0.0106812,-0.00671387,-0.0590515,-0.00167847,-0.0828552,0.0282288,-0.0175476,0.000457764
805,0.042572,-0.00442505,-0.00488281,0.00671387,-0.00747681,-0.0608826,0.0296021,-0.00274658,-0.0306702
805,0.00686646,0.0405884,-0.00762939,0.0128174,-0.03479,-0.0492859,-0.0172424,0.0213623,0.00152588
805,0.0138855,0.0106812,0.00442505,0.0361633,-0.0187683,0.032959,-0.0445557,0.01297,0.00411987
805,0.0167847,0.00305176,-0.045166,0.0610352,0.0105286,0.126953,-0.0141907,0.0088501,0.0114441
805,0.00396729,-0.0273132,-0.0163269,0.0434875,-0.0114441,0.13382,-0.0128174,0.0164795,0.0166321
805,0.00350952,-0.00259399,-0.00869751,0.0227356,0.0131226,0.11322,0.0239563,0.00244141,-0.00427246
805,0.0216675,-0.0131226,-0.00305176,-0.0241089,0.00900269,0.0749207,0.0152588,-0.0012207,0.018158
805,0.0125122,0.00976562,-0.0244141,-0.0273132,0.0233459,0.039978,0.0184631,0.0205994,0.0386047
805,0.0088501,-0.00564575,0.000762939,-0.030365,0.0187683,0.0424194,-0.0125122,0.0105286,0.0230408
805,0.00198364,0.0138855,0.0126648,-0.0534058,0.0115967,0.00762939,-0.0189209,0.0088501,0.00473022
806,0.0224304,-0.0149536,-0.000305176,-0.00549316,0.0338745,-0.000457764,-0.00991821,0.015564,0.00335693
806,0.00808716,0.0172424,-0.0213623,0.0262451,0.00793457,0.0134277,-0.0152588,0.0154114,0.0143433
806,0.0205994,0.00534058,-0.0476074,0.0448608,0.0253296,0.00198364,0.0297546,0.00198364,0.0338745
806,0.0105286,0.0297546,-0.0387573,0.0305176,0.0357056,-0.00793457,0.0210571,0.00991821,-0.00137329
806,0.022583,-0.00350952,0.000915527,0.0245667,0.0340271,-0.0193787,0.0241089,0.0184631,0.025177
806,0.0170898,0.00595093,-0.0268555,0.0106812,-0.00854492,-0.00244141,0.0088501,0.00335693,0.0117493
806,0.0135803,0.0137329,-0.00915527,0.0167847,0.0115967,-0.00366211,0.0259399,-0.0120544,0.00198364
806,0.0291443,0.000457764,-0.0244141,0.00289917,-0.000152588,-0.00915527,0.00976562,0.00717163,0.0128174
806,0.0135803,0.0227356,-0.00305176,-0.0144958,0.00305176,0.0492859,-0.00427246,-0.0012207,0.0196838
806,0.0180054,0.0343323,-0.00701904,-0.0146484,0.0193787,0.0878906,0.00305176,0.0140381,-0.0111389
807,0.0346375,0.0312805,0.0289917,-0.0131226,0.0372314,0.0369263,0.0123596,0.0326538,-0.00488281
807,0.0274658,0.032959,-0.000762939,0.00732422,0.0234985,0.0285339,0.0234985,0.00900269,0.00564575
807,0.0305176,0.0341797,-0.00778198,-0.00610352,0.00259399,0.0544739,0.0190735,0.00350952,-0.0202942
807,-0.00778198,0.0378418,-0.0326538,0.0239563,0.0111389,-0.00915527,0.018158,0.00152588,0.022583
807,0.00518799,0.0308228,-0.0158691,0.0221252,-0.0038147,0.0419617,0.00518799,0.0332642,0.0138855
807,0.00534058,0.0276184,0.0012207,0.000610352,-0.0012207,0.00595093,0.0120544,0.000305176,0.00518799
807,0.00244141,0.0250244,-0.0291443,0.0254822,0.00579834,0.0138855,0.0205994,0.00396729,0.00900269
807,0.022583,0.0123596,-0.00717163,0.0109863,0.00350952,0.017395,0.0140381,-0.0144958,-0.00549316
807,-0.00259399,0.0222778,0.0100708,0.0239563,-0.000152588,0.0100708,0.0141907,0.0141907,-0.0152588
807,-0.00427246,0.0218201,-0.0250244,-0.0205994,0.00534058,-0.00366211,-0.00534058,0.00564575,0.012207
808,-0.00564575,0.0280762,-0.00854492,-0.0326538,0.00701904,-0.00976562,-0.0360107,0.0114441,0.0267029
808,-0.0149536,0.0151062,0.0108337,-0.0183105,-0.0144958,0.0109863,-0.00534058,0.0297546,0.00839233
808,0.000305176,0.00854492,0.00595093,0.0253296,-0.00747681,0.0126648,-0.0254822,-0.000457764,0.0350952
808,0.0144958,-0.000152588,-0.0158691,0.0338745,-0.0167847,0.00534058,-0.00488281,0.00488281,0.00717163
808,-0.00473022,0.00473022,-0.00183105,0.0260925,0.00198364,-0.00564575,0.0141907,-0.00946045,0.0183105
808,0.00305176,0.000152588,0.0141907,0.0117493,0.00183105,-0.0192261,0.000305176,0.0125122,0.00106812
808,0.00839233,-0.0112915,0.0088501,0.0224304,0.0192261,-0.00411987,-0.00350952,0.00778198,0.0201416
808,0.0404358,0.000305176,-0.0120544,-0.00640869,0.00137329,0.000457764,0.00778198,0.0270081,-0.00854492
808,0.00335693,0.00640869,0.00656128,-0.0621033,-0.00366211,0.0102234,0.00564575,-0.00732422,0.0050354
808,0.0198364,0.0282288,-0.0112915,-0.0985718,0.0149536,-0.000915527,0.0158691,0.0358582,-0.00869751
809,-0.00457764,0.0331116,0.00640869,-0.065155,-0.0254822,-0.00183105,0.0112915,0.00350952,0.00427246
809,0.0109863,0.00930786,0.0244141,0.0624084,0.0106812,-0.0138855,-0.0038147,0.00427246,-0.00595093
809,-0.0161743,0.0215149,-0.00244141,0.0892639,0.00411987,0.000305176,0.0100708,-0.00411987,-0.00198364
809,0.0202942,0.00915527,-0.00473022,0.0320435,-0.00213623,-0.0213623,0.014801,-0.0012207,0.00442505
809,0.0404358,0.0218201,-0.00473022,0.040741,-0.00701904,-0.010376,0.0540161,0.00823975,0.0120544
809,0.0198364,0.017395,0.0138855,0.0271606,0.0108337,0.0143433,0.0161743,-0.00961304,-0.00579834
809,0.0186157,0.000152588,-0.000610352,-0.000610352,0.0268555,0.00457764,0.00915527,0.0352478,0.0247192
809,-0.00579834,0.00976562,0.0161743,-0.000457764,-0.00228882,-0.0102234,0.0216675,0.00823975,-0.00244141
809,0.0141907,0.0270081,0.0389099,-0.00686646,0.0125122,0.0210571,0.0186157,0.0154114,0.000457764
809,0.00915527,0.0201416,0.0189209,-0.0224304,-0.00823975,0.0050354,0.00579834,0.000762939,0.0137329
810,0.00335693,0.0234985,0.0299072,0.00762939,0.00488281,-0.00823975,0.0422668,0.0218201,0.0166321
810,0.000610352,0.00259399,0.0137329,-0.00793457,0.0135803,0.0187683,0.0117493,0.00808716,-0.00183105
810,0.0119019,0.00976562,0.0170898,0.0202942,-0.0152588,0.00839233,0.00976562,0.0138855,0.0343323
810,-0.00534058,0.00778198,0.0349426,0.0241089,0.0141907,0.0230408,0.0209045,-0.000305176,0.03479
810,-0.00320435,-0.00366211,0.0213623,0.0244141,0.00274658,-0.01297,0.0372314,0.0143433,0.00747681
810,-0.0128174,-0.00869751,-0.0106812,0.0315857,-0.000305176,-0.00549316,0.0238037,-0.0228882,0.0012207
810,0.00198364,-0.0367737,-0.00869751,0.0268555,-0.00213623,-0.0123596,-0.015564,0.000915527,0.00549316
810,0.00991821,-0.00228882,0.0205994,0.00915527,-0.0088501,0.0231934,0.00350952,-0.0111389,-0.0151062
810,0.0196838,0.0146484,0.038147,0.00305176,0.00274658,0.0289917,0.00518799,-0.000762939,0.0102234
810,0.0166321,0.0276184,0.0572205,-0.00442505,-0.00244141,-0.0224304,0.0112915,0.0134277,-0.0111389
811,0.0248718,0.017395,0.0282288,-0.0502014,-0.00610352,0.0230408,0.0216675,0.00442505,0.00732422
811,0.0135803,0.00549316,-0.00427246,-0.0578308,-0.0105286,0.00946045,0.0190735,-0.00610352,0.0167847
811,0.0154114,0.00717163,-0.00732422,-0.0839233,0.0186157,-0.00579834,0.0205994,0.00869751,0.0296021
811,0.0119019,0.0357056,-0.00366211,0.0062561,0.00152588,0.0167847,0.0143433,0.025177,0.0169373
811,0.0224304,0.0456238,0.015564,0,0.0198364,-0.00137329,0.0213623,0.00305176,0.00839233
811,0.0062561,0.0296021,0.0292969,0.025177,0.0382996,0.014801,0.0166321,-0.00473022,-0.00213623
811,-0.00335693,-0.0166321,-0.00320435,0.123749,0.0349426,-0.00442505,0.00686646,-0.00457764,-0.0210571
811,-0.00564575,0.00762939,0.0196838,0.100098,0.0363159,0.00473022,0.0140381,-0.0296021,0.00411987
811,0.0038147,0.0050354,0.0291443,0.0532532,0.0280762,0.00595093,0.0141907,-0.00946045,0.0119019
811,0.00946045,0.0247192,0.0436401,0.0520325,0.0166321,-0.00823975,0.00152588,0.0146484,0.0141907
812,0.000305176,-0.000457764,0.0656128,0.0453186,-0.00289917,0.0177002,0.00457764,-0.0088501,0.0117493
812,0.0224304,-0.000457764,0.0453186,-0.00823975,0.00930786,-0.00320435,0.0219727,-0.00320435,0.00137329
812,-0.000305176,0.00396729,0.0413513,-0.0151062,-0.000457764,0.00366211,0.000610352,0.015564,0.0175476
812,-0.000305176,0.00671387,0.0495911,-0.0308228,0.0190735,-0.0283813,0.00946045,0.0184631,0.00732422
812,0.0119019,-0.00808716,0.0416565,-0.03479,0.014801,0.00152588,-0.0186157,0.00839233,-0.0248718
812,0.0100708,-0.0119019,0.0537109,0.0578308,0.0062561,0.00564575,-0.00991821,-0.00259399,0.0248718
812,0.00808716,-0.00640869,0.0259399,0.0325012,0.00915527,0.0187683,-0.00457764,0.0186157,0.0152588
812,0.00320435,-0.00366211,0.0163269,0.0257874,0.0100708,0.0282288,-0.0218201,0.0152588,0.00564575
812,0.00167847,0.00213623,0.022583,0.0190735,0.0088501,0.00976562,0.0285339,0.0238037,0.00930786
812,0.0149536,-0.0231934,0.0317383,0.0100708,0.00244141,0.00701904,-0.00656128,-0.0105286,-0.000457764
813,0.00701904,-0.0106812,0.0334167,0.00396729,-0.00778198,-0.0276184,-0.0134277,-0.00976562,-0.0222778
813,0.0254822,0.00671387,0.0227356,-0.0146484,-0.010376,-0.014801,0,-0.0175476,-0.00167847
813,0.0134277,0.0340271,0.00320435,0.0317383,0.0196838,-0.00289917,0.0106812,-0.00900269,0.0273132
813,0.00808716,0.0117493,-0.0062561,0.0340271,0.00854492,0.0111389,0.00518799,-0.00213623,0.000610352
813,0.0177002,0.0088501,0.0125122,-0.0125122,0.00244141,0.0144958,0.0515747,0.0062561,0.0114441
813,-0.0106812,-0.017395,0.0285339,-0.0160217,0.0111389,0.0190735,-0.00701904,0.00900269,0.0210571
813,0.0204468,-0.0305176,0.0186157,0.00488281,0.00686646,0.0134277,-0.0248718,0.00701904,-0.0038147
813,0.00411987,-0.012207,0.0334167,0.0137329,-0.0050354,0.0151062,0.00869751,-0.0012207,0.0280762
813,0.00457764,-0.019989,0.0296021,0.00549316,0.0192261,0.00137329,0.0177002,-0.00564575,0.00808716
813,0.0102234,0.00930786,0.00640869,-0.0154114,0.0144958,0.020752,0.0186157,0.00869751,0.0012207
814,0.0233459,-0.00244141,0.0259399,-0.0012207,-0.00457764,0.0196838,0.00213623,0.014801,0.0274658
814,0.00473022,-0.000610352,-0.00946045,0.0227356,0.0088501,0.0233459,-0.00488281,0.00442505,0.0134277
814,0.0280762,0.0212097,0.00228882,0.0337219,0.00198364,0.0161743,0.0164795,-0.000610352,0.00396729
814,0.0131226,-0.015564,0.0552368,0.0299072,0.0172424,-0.00396729,0.027771,0.0144958,0.035553
814,0.000762939,-0.00427246,-0.00152588,0.0228882,0.00442505,0.0178528,-0.0193787,0.00579834,0.00259399
814,0.0100708,0.0250244,0.014801,-0.0300598,0.018158,-0.0221252,0.0123596,0.0270081,0.0161743
814,0.000305176,0.0308228,0.0338745,0.00320435,-0.0050354,0.0140381,0.0126648,-0.0306702,0.00717163
814,0.00900269,0.0276184,0.00595093,0.0422668,0.0219727,0.0227356,0.00686646,0.0062561,0.0135803
814,0.00915527,0.014801,-0.00808716,0.0357056,-0.00946045,-0.00152588,0.0190735,0.0158691,0.0115967
814,0.0012207,0.00595093,-0.0579834,0.0314331,-0.00961304,0.0141907,-0.00259399,0.0231934,0.0144958
815,0.00198364,0.0354004,-0.0520325,0.00457764,0.0247192,0.0163269,0.0137329,-0.00289917,0.0210571
815,-0.0050354,0.00610352,-0.0268555,-0.00320435,0.0253296,-0.00915527,0.00686646,0.0163269,0.00793457
815,-0.00701904,0.0213623,-0.00823975,-0.0192261,0.0158691,0.00991821,-0.00640869,0.00732422,0.00640869
815,-0.0012207,0.0132751,0.0170898,0.0265503,0.0105286,-0.00366211,-0.00137329,-0.00564575,-0.0285339
815,0.0190735,0.0265503,0.0305176,-0.00610352,0.010376,0.0416565,0.000915527,0.0050354,0.00762939
815,-0.0123596,0.00701904,0.0737,-0.0343323,0.0270081,0.00198364,0.0210571,0.0114441,0.0140381
815,0.00534058,-0.00656128,0.0286865,-0.062561,-0.00167847,0.0247192,-0.0062561,0.00473022,0.0143433
815,0.00640869,-0.00946045,0.0369263,-0.0598145,0.0125122,0.010376,-0.00259399,0.0102234,0.00106812
815,0.0163269,-0.00564575,0.0608826,-0.0570679,0.00442505,-0.00411987,-0.0120544,0.0177002,0.00854492
815,-0.00823975,0.0112915,0.0419617,-0.0125122,-0.0106812,0.0152588,-0.018158,0.0392151,-0.0117493
816,0.00366211,0.0224304,0.0630188,-0.0498962,0.00152588,0.0315857,-0.0117493,0.0152588,-0.00152588
816,-0.0126648,-0.0120544,0.0265503,-0.100098,0.0254822,0.0241089,0.0254822,0.0186157,0.00595093
816,0.000610352,0.0143433,0.0444031,-0.0973511,-0.00335693,0.0201416,0.000305176,0.0218201,-0.00152588
816,0.0386047,-0.000610352,0.0379944,-0.000152588,0.0325012,0.0105286,-0.00732422,0.00488281,0.0137329
816,0.017395,0.0201416,0.0720215,0.149536,0.0120544,0.0219727,0.0338745,0.00686646,-0.0141907
816,0.0312805,0.0395203,0.0456238,0.114594,0.0238037,0.00198364,0.0146484,0.00534058,0.00473022
816,0.0120544,0.04776,0.0201416,0.0775146,0.00457764,-0.00228882,0.0166321,0.00915527,0.0271606
816,0.014801,0.0369263,-0.00823975,0.068512,0.0198364,0.00717163,0.00717163,-0.00289917,0.0134277
816,0.0297546,0.025177,-0.0488281,0.0115967,0.0236511,0.00961304,0.0138855,0.0256348,0.0245667
816,0.0476074,0.0418091,-0.0657654,0.025177,0.0234985,0.00991821,-0.0263977,0.00427246,0.0111389
817,0.0344849,0.0265503,-0.0782776,0.0271606,0.00305176,0.00366211,0.0062561,-0.00473022,0.00564575
817,0.0205994,0.0689697,-0.0909424,0.0289917,0.0317383,0.00671387,0.0209045,0.00167847,0.000305176
817,0.0215149,0.0282288,-0.0900269,0.022583,0.035553,-0.0152588,0.0119019,0.000457764,0.0230408
817,-0.0105286,0.0216675,-0.0723267,0.017395,0.0212097,0.00244141,0.0334167,0.00808716,0.00411987
817,-0.0224304,0,-0.0737,0.0137329,-0.00686646,0.0288391,0.00366211,0.0143433,0.0169373
817,0.0115967,0.0193787,-0.00579834,0.0245667,0.00717163,0.0299072,0.035553,0.0088501,0.00778198
817,0.00289917,0.0350952,0.0161743,0.0143433,-0.0100708,0.0134277,0.0222778,-0.00244141,0.020752
817,0.0105286,0.0393677,0.108643,0.0108337,0.00701904,0.0154114,0.0335693,0.00610352,-0.015564
817,0.000610352,-0.00167847,0.100098,-0.017395,0.0126648,-0.0233459,-0.00198364,-0.0114441,0.00442505
817,0.0234985,0.015564,0.059967,0.0160217,-0.00854492,0.0112915,0.0337219,-0.00411987,0.0138855
818,0.00686646,0.00656128,0.0775146,-0.00595093,0.00396729,0.0144958,-0.0131226,-0.0012207,-0.00717163
818,-0.0050354,0.0205994,0.0701904,0.00350952,-0.00946045,0.00900269,-0.00900269,0.0250244,-0.0146484
818,-0.00915527,-0.00305176,0.0747681,0.015564,-0.000457764,-0.0260925,0.0146484,-0.0273132,0.00640869
818,0.0227356,0.0257874,0.0457764,0.00717163,0.039978,0.0213623,-0.00228882,0.00808716,-0.0222778
818,0.00930786,0.0231934,0.0219727,-0.00320435,-0.000610352,0.00717163,0.00762939,0.0157166,-0.000762939
818,0.0386047,0.0231934,0.0338745,0.00640869,0.0105286,0.0218201,-0.0114441,0.0149536,0.0193787
818,-0.00305176,-0.000762939,-0.00350952,0.0164795,0.00259399,0.00778198,0.0151062,-0.00518799,-0.000305176
818,-0.00259399,-0.00686646,0.00564575,0.065918,-0.00244141,0.0100708,-0.00991821,0.0062561,0.00671387
818,-0.0050354,0.0236511,-0.0257874,0.0454712,0.00350952,0.0308228,0.00137329,0.0186157,-0.00183105
818,-0.0117493,-0.00335693,-0.0415039,-0.00457764,0.0178528,0.0248718,0.00488281,0.019989,-0.0062561
819,-0.0204468,-0.0109863,-0.0521851,-0.000762939,-0.00457764,-0.0149536,0.00656128,0.0166321,0.0119019
819,-0.0102234,0.0274658,-0.0331116,0.00442505,-0.00305176,-0.0265503,-0.00137329,0.0135803,0.022583
819,0.0286865,0.0167847,-0.0138855,-0.00671387,0.00228882,0.0247192,-0.00976562,0.0186157,0.0270081
819,-0.00289917,0.0314331,0.0267029,-0.035553,0.00946045,-0.0271606,0.0123596,0.0125122,0.0309753
819,-0.00213623,0.0228882,-0.0309753,-0.0117493,0.012207,-0.0262451,-0.0204468,0.00457764,0.032196
819,0.0134277,0.0363159,-0.0494385,0.00808716,0.0012207,-0.0111389,-0.00152588,0.000305176,0.00442505
819,0.0254822,0.0764465,0.0134277,0.00793457,0.0283813,-0.00183105,-0.0196838,0.00900269,0.0270081
819,0.0337219,0.0250244,0.0602722,0.020752,-0.0102234,-0.0245667,0.0190735,0.0123596,0.018158
819,0.0244141,0.0550842,0.13092,0.0320435,0.00701904,-0.0115967,0.0134277,0.00793457,0.0154114
819,0.0340271,0.0675964,0.0668335,0.00564575,0.0158691,-0.0201416,-0.0375366,0.0154114,0.0111389
820,0.0479126,-0.0012207,0.0494385,-0.0364685,0.0117493,-0.00335693,0.0427246,-0.00839233,0.0105286
820,0.0248718,0.0245667,0.0190735,-0.0923157,-0.00457764,-0.00823975,0.00656128,0.017395,0.0227356
820,0.0390625,0.0213623,0.00366211,-0.000152588,0.0311279,0.0175476,0.00320435,0.0151062,-0.00350952
820,0.017395,0.0288391,0.0172424,0.0839233,0.00732422,-0.00289917,-0.00228882,-0.0166321,-0.0102234
820,0.00762939,0.0166321,-0.000915527,0.085907,0.0175476,0.0109863,0.0202942,0.00366211,0.00289917
820,0.017395,0.0196838,-0.0189209,0.0535583,0.01297,0.039978,0.0201416,-0.00411987,0.0149536
820,0.0163269,0.0439453,-0.0523376,-0.0552368,0.0100708,0.0396729,0.00640869,0.0309753,-0.00274658
820,0.00671387,0.03479,-0.045166,-0.0012207,-0.0248718,0.019989,-0.000915527,0.00595093,0.0205994
820,0.0146484,0.00839233,-0.0370789,0.0892639,0.00991821,0.0260925,0.0106812,0.0196838,-0.00335693
820,0.0205994,0.00991821,-0.0234985,0.121155,0.00305176,0.00289917,0.00152588,0.00198364,-0.00213623
821,0.00900269,0.0161743,-0.0131226,-0.0827026,0.0361633,-0.00686646,0.00839233,0.00762939,-0.00366211
821,0.00717163,-0.00808716,-0.00640869,-0.0450134,0.0231934,0.000305176,0.00854492,0.0131226,-0.00411987
821,0.00305176,-0.00305176,0.00411987,0.0863647,0.0224304,0.0257874,-0.00305176,0.00518799,0.00289917
821,-0.0108337,0.00274658,-0.0379944,0.153503,-0.0131226,-0.0126648,-0.0187683,-0.0315857,0.025177
821,-0.0170898,0.0392151,-0.0474548,0.0773621,0.00900269,0.0387573,0.0012207,0.0151062,0.0102234
821,-0.0242615,0.0518799,-0.032959,0.141602,-0.0221252,0.0270081,0.00686646,0.00305176,0.020752
821,-0.0183105,0.0358582,-0.0474548,-0.027771,-0.0172424,0.00366211,0.0038147,0.0108337,-0.00183105
821,-0.00137329,0.0610352,0.010376,-0.189667,0.00518799,0.0012207,0.00549316,0.0396729,0.00961304
821,0.0140381,0.0341797,-0.00656128,-0.141144,-0.0167847,0.00396729,-0.0112915,0.00350952,0.00244141
821,0.0224304,0.00335693,-0.00640869,-0.0158691,0.0431824,0.0289917,0.00808716,-0.00534058,-0.00518799
822,0.0204468,-0.017395,0.00213623,-0.01297,0.0421143,-0.00701904,0.0201416,0.000762939,0.0334167
822,-0.0253296,0.00976562,0.00396729,-0.0598145,0.0613403,0.00335693,0.0108337,0.000152588,0.020752
822,0.0154114,-0.0221252,0.0112915,-0.0694275,0.040741,0.018158,-0.0259399,0.000762939,0.00167847
822,0.0453186,0.00839233,-0.0337219,-0.0393677,0.0411987,0.0360107,-0.0119019,-0.00915527,0.0112915
822,0.0483704,0.0358582,-0.0204468,-0.0343323,0.0340271,0.0325012,-0.00717163,0.0154114,0.0344849
822,0.0920105,0.0386047,-0.0337219,0.0357056,-0.0193787,-0.01297,0.00778198,0.0212097,0.00900269
822,0.106964,0.0793457,0.0204468,0.0538635,-0.000305176,-0.00320435,-0.00167847,0.00274658,0.0566101
822,0.0431824,0.114899,-0.00289917,0.0456238,0.00350952,-0.000610352,0.0167847,-0.0271606,0.0106812
822,0.043335,0.08255,-0.0230408,-0.0291443,0.00167847,0.0331116,0.00228882,-0.0115967,0.020752
822,0.00320435,0.0642395,-0.0636292,-0.119629,-0.00778198,0.0111389,-0.0198364,0.00228882,0.00244141
823,-0.019989,0.0552368,-0.0387573,-0.169678,-0.0161743,0.0119019,-0.00335693,0.0372314,0.0497437
823,-0.0437927,0.0343323,-0.0205994,0.067749,0.00259399,0.0210571,0.0120544,0.0396729,0.0115967
823,-0.0212097,0.0108337,-0.0140381,0.26825,-0.00244141,0.0198364,0.0285339,0.0346375,0.0238037
823,-0.0437927,0.00717163,0.0115967,0.0949097,-0.00976562,0.0527954,-0.0341797,0.0323486,0.0402832
823,-0.0189209,-0.0062561,-0.0132751,-0.0106812,0.00396729,0.0405884,0.0317383,0.00961304,0.00991821
823,0.0260925,-0.0151062,-0.0088501,0.0250244,-0.00427246,0.0299072,0.0138855,0.0106812,0.00595093
823,0.0296021,-0.0259399,-0.019989,-0.0100708,-0.00671387,0.00320435,0.0257874,0.00488281,0.0314331
823,0.0396729,-0.000305176,-0.0378418,-0.0852966,0.00854492,-0.00320435,0.043335,-0.00549316,-0.0108337
823,0.0152588,0.000305176,-0.0682068,-0.112,0.0195312,-0.0038147,0.01297,-0.0294495,-0.00991821
823,0.0123596,0.0219727,-0.0238037,-0.0474548,0.0259399,-0.00442505,0.0257874,-0.0286865,-0.018158
824,0.0169373,0.00717163,-0.00808716,0.0650024,0.0088501,-0.0234985,0.00610352,-0.0161743,0.0254822
824,0.0144958,-0.000610352,0.0509644,0.045166,0.010376,-0.0234985,-0.00518799,-0.0154114,-0.0230408
824,0.017395,0.00366211,0.0788879,0.0578308,0.0274658,-0.0233459,0.0294495,0.0038147,-0.00717163
824,-0.00808716,-0.0363159,0.0494385,0.0483704,0.00518799,-0.00808716,-0.00320435,-0.00610352,0.00793457
824,-0.017395,-0.0675964,0.00961304,-0.0198364,0.00183105,-0.0114441,-0.00579834,-0.00762939,0.0170898
824,-0.0190735,-0.0637817,0.0183105,0.00564575,0.0209045,-0.00595093,-0.00457764,-0.0117493,0.00640869
824,-0.0245667,-0.0476074,0.0280762,0.0160217,-0.00488281,-0.0404358,0.0314331,0.0234985,0.0050354
824,-0.0164795,-0.0402832,0.0596619,-0.00930786,0.00473022,0.0100708,0.0253296,0.022583,0.000915527
824,0.0012207,-0.0158691,0.0416565,0.00442505,0.00640869,-0.00366211,0.00137329,0.0326538,-0.0326538
824,0.0141907,-0.025177,0.035553,-0.0102234,0.0108337,0.00411987,0.00335693,0.0263977,-0.000152588
