Frame,RF,VL,BF,TA,SOL,GAS_MED,GAS_LAT,GLUT_MED,GLUT_MAX
659,0.0170898,-0.0515747,0.0558472,-0.0886536,-0.0161743,-0.0331116,0.197754,0.0306702,0.0128174
659,0.00915527,-0.0744629,-0.065918,-0.261688,-0.00915527,0.0340271,0.148468,0.00350952,0.0209045
659,0.0227356,-0.025177,-0.0157166,-0.0672913,0.0553894,0.0204468,0.126343,0.0212097,0.014801
659,0.0393677,0.0238037,0.0241089,0.0497437,0.0360107,0.0125122,0.0946045,0.0125122,-0.00717163
659,0.0169373,0.0196838,0.118408,0.0331116,0.00457764,0.0604248,0.104218,0.00717163,0.0334167
659,0.00152588,-0.0134277,0.0770569,0.00152588,0.0276184,0.0195312,0.110779,0.0250244,-0.0120544
659,-0.00640869,-0.0238037,0.0488281,-0.0445557,0.0234985,-0.0917053,0.15213,0.0178528,-0.0105286
659,0.000152588,0.000915527,-0.00183105,-0.0447083,-0.0500488,-0.0617981,0.138702,0.0178528,-0.0317383
659,-0.0180054,-0.0125122,-0.0558472,-0.0416565,-0.0259399,-0.0616455,0.107422,-0.0117493,-0.0286865
659,-0.0187683,-0.0338745,-0.0778198,-0.0274658,-0.00259399,-0.0344849,0.109711,-0.00579834,-0.0224304
660,0.00411987,-0.0297546,-0.0950623,-0.00442505,-0.0654602,0.00793457,0.0898743,-0.0112915,-0.0292969
660,-0.0186157,-0.0308228,-0.10498,-0.0538635,-0.0291443,0.0764465,0.012207,-0.0279236,-0.0256348
660,-0.0100708,-0.0411987,-0.0933838,-0.0268555,-0.0012207,0.09552,-0.0395203,0.0038147,-0.0340271
660,0.0157166,-0.037384,-0.0593567,0.091095,0.0222778,0.100555,-0.0857544,0.00320435,0.00991821
660,-0.0152588,0.00961304,-0.0639343,0.133514,0.00686646,0.0369263,-0.0997925,-0.0186157,-0.00518799
660,0.0157166,0.0497437,0.0149536,0.102081,0.020752,-0.0219727,-0.156708,-0.0157166,-0.00579834
660,0.0518799,0.0337219,0.091095,0.0202942,0.0164795,-0.0143433,-0.176849,-0.017395,0.0228882
660,-0.0088501,0.0366211,0.0849915,0.0244141,0.019989,-0.00244141,-0.200653,0.00274658,0.0427246
660,0.0088501,0.0456238,0.105133,0.0376892,0.0286865,0.0408936,-0.233154,-0.0100708,0.0434875
660,0.0209045,0.0662231,0.116119,0.0611877,0.0242615,-0.0224304,-0.256653,-0.000610352,0.0215149
661,0.0344849,0.0250244,0.0762939,0.101013,0.00106812,-0.0628662,-0.251312,0.000762939,0.0196838
661,0.0515747,0.012207,-0.0553894,0.0845337,0.00686646,-0.0782776,-0.289459,-0.0175476,0.030365
661,0.0289917,-0.125275,-0.0785828,0.0961304,0.0117493,-0.0750732,-0.262756,0.0308228,0.0349426
661,-0.00274658,-0.0946045,-0.100098,0.0575256,0.0160217,-0.0700378,-0.236359,0.0172424,0.0221252
661,0.01297,-0.0511169,-0.105743,0.035553,0.0125122,-0.0582886,-0.231476,0.0337219,0.0210571
661,0.0111389,-0.0140381,-0.152283,-0.0718689,-0.00350952,-0.0379944,-0.22522,0.0137329,0.0172424
661,0.0306702,0.0183105,-0.0708008,-0.125122,0.00305176,0.0190735,-0.261536,0.00823975,-0.00457764
661,0.0106812,0.0392151,0.00991821,-0.262604,0.039978,-0.0415039,-0.276184,0.0262451,-0.01297
661,-0.0106812,0.0112915,0.0270081,-0.267792,-0.0114441,0.0564575,-0.307922,0.0202942,0.020752
661,0.00976562,0.0152588,0.0772095,-0.159454,0.0311279,0.0970459,-0.293579,0.0794983,0.0289917
662,0.00839233,0.0038147,0.0994873,-0.110779,0.0227356,0.1651,-0.317841,0.0575256,0.0259399
662,0.00564575,0.0201416,0.133362,0.018158,0.0239563,0.0196838,-0.33371,0.058136,0.0270081
662,0.00320435,0.0288391,0.0686646,0.0665283,-0.000305176,-0.0256348,-0.234985,0.0178528,0.00366211
662,0.0350952,0.0386047,-0.015564,0.100555,0.00869751,0.00350952,-0.151672,0.0424194,0.017395
662,0.0134277,0.0637817,-0.0608826,0.144196,0.0115967,-0.00778198,-0.104218,-0.00946045,-0.00793457
662,-0.0108337,0.0726318,-0.0775146,0.117188,-0.00762939,0.0434875,-0.0218201,-0.0650024,-0.00335693
662,-0.00183105,0.067749,-0.0917053,-0.0390625,0.00579834,-0.00183105,0.0271606,-0.0447083,0.00686646
662,0.0189209,0.0448608,-0.0726318,-0.0834656,0.0196838,-0.0190735,0.0500488,-0.0236511,-0.00976562
662,0.0213623,0.0480652,-0.0631714,-0.0421143,0.020752,0.0152588,0.0947571,0.00671387,0.0177002
662,-0.0184631,0.0579834,-0.0157166,0.0341797,-0.00228882,0.0291443,0.135193,0.0152588,-0.0233459
663,-0.000915527,0.0405884,0.0154114,-0.0299072,0.00366211,-0.0386047,0.263672,0.019989,0.0317383
663,0.00549316,0.0506592,0.0390625,-0.0216675,-0.00686646,-0.0572205,0.259399,-0.0114441,0.019989
663,0.00854492,0.01297,0.0413513,-0.0198364,0.0392151,-0.0744629,0.25238,0.0164795,0.0427246
663,0.0187683,0.00228882,0.052948,-0.0271606,-0.0144958,-0.0204468,0.322418,0.00350952,0.0262451
663,0.0559998,-0.00411987,0.0231934,0.040741,-0.0357056,0.0186157,0.367584,0.0279236,0.0222778
663,0.0604248,0.0209045,-0.00289917,0.0410461,-0.0144958,-0.0198364,0.414429,0.0482178,0.0317383
663,-0.00473022,0.0473022,-0.0276184,0.124512,-0.00518799,-0.0430298,0.446472,-0.0062561,0.0189209
663,0.0126648,0.0816345,-0.0309753,-0.13916,0.00442505,-0.0389099,0.526123,0.0158691,-0.00198364
663,-0.0408936,0.0593567,-0.0180054,-0.167236,0.0430298,0.0219727,0.607452,0.00213623,0.0221252
663,-0.0109863,0.110779,0.0178528,-0.063324,0.0234985,0.0572205,0.704651,0.0260925,0.0352478
664,-0.0114441,0.0588989,0.0616455,0.0119019,-0.00213623,0.0836182,0.829468,0.014801,0.0135803
664,-0.00976562,0.100403,0.0395203,0.421295,0.0656128,0.171356,0.844421,0.038147,0.0578308
664,0.00610352,0.0971985,0.0741577,0.457153,0.0839233,0.108948,0.784302,0.0233459,0.0292969
664,-0.00640869,0.0666809,0.0695801,0.340576,0.0712585,0.0930786,0.793915,0.0164795,0.0306702
664,0.0135803,0.01297,0.035553,0.177155,0.0494385,0.0640869,0.771637,0.00152588,0.00137329
664,0.00640869,-0.000762939,-0.0436401,-0.127411,0.0450134,0.0338745,0.712585,0.00350952,0.0123596
664,0.0375366,0.0367737,-0.0358582,0.0317383,0.0195312,-0.043335,0.675659,0.0192261,0.00793457
664,0.022583,0.0361633,-0.0270081,0.106659,-0.0178528,-0.0643921,0.646973,0.0154114,0.0117493
664,0.0296021,0.0485229,-0.00518799,0.132294,-0.057373,-0.0656128,0.542145,0.0132751,0.00518799
664,0.00534058,0.0485229,0.00305176,0.138245,-0.022583,-0.0747681,0.410004,0.0325012,-0.0038147
665,0.0218201,0.0105286,0.0338745,0.00320435,-0.0382996,-0.0227356,0.291748,0.00595093,0.0088501
665,-0.00656128,-0.00289917,0.00518799,-0.153961,-0.00244141,-0.00213623,0.231476,-0.027771,-0.00869751
665,0.0180054,0.0598145,0.0505066,-0.261536,0.0279236,0.0378418,0.0973511,0.0131226,-0.0106812
665,-0.0315857,0.134735,0.0593567,-0.226746,0.030365,0.0143433,0.00869751,0.0152588,-0.0195312
665,-0.0106812,0.177307,0.038147,-0.0959778,0.0286865,0.0221252,-0.065918,-0.000305176,-0.0466919
665,0.00976562,0.14328,0.00747681,-0.190887,-0.0213623,-0.0247192,-0.150604,0.0288391,-0.0390625
665,0.00839233,0.115356,0.00579834,-0.107269,-0.00823975,-0.00396729,-0.165558,-0.0192261,-0.00854492
665,-0.0108337,0.157623,0.00793457,-0.0535583,-0.0346375,-0.0132751,-0.173798,0.0209045,-0.0205994
665,-0.0222778,0.102692,0.0335693,-0.0224304,0.00518799,-0.0358582,-0.225983,0.00442505,-0.039978
665,-0.0288391,0.0480652,0.0453186,-0.0108337,0.0233459,-0.0349426,-0.28595,-0.0300598,-0.0488281
666,-0.0128174,-0.00823975,0.0402832,0.0352478,0.0213623,-0.0265503,-0.276337,0.0125122,-0.0302124
666,0.035553,0.0379944,0.0665283,0.0286865,-0.0216675,-0.0132751,-0.260773,-0.0012207,-0.0164795
666,0.0506592,0.0265503,0.0233459,-0.0402832,0.00427246,0.000915527,-0.298004,0.0105286,0.00839233
666,0.0134277,0.00335693,-0.000152588,-0.0627136,-0.0160217,0.00976562,-0.301208,-0.00808716,0.0138855
666,0.0135803,0.0195312,0.0108337,-0.0267029,0.0209045,0.0334167,-0.284729,0.0238037,0.0398254
666,0.0253296,0.0396729,0.0236511,0.0195312,0.0291443,0.00305176,-0.336456,-0.00152588,0.0309753
666,0.0572205,0.0234985,0.0183105,0.0152588,0.00656128,-0.0038147,-0.325165,0.0256348,0.0268555
666,0.038147,-0.00564575,0.0210571,-0.0991821,0.0198364,0.0212097,-0.345917,0.0299072,0.0730896
666,0.0108337,-0.0128174,0.000152588,-0.107422,0.0134277,-0.00183105,-0.327606,0.0257874,0.0535583
666,0.012207,0.00946045,-0.0497437,-0.0460815,0.0125122,-0.000457764,-0.3685,0.0186157,0.0720215
667,0.0140381,0.00366211,0.0149536,-0.0773621,0.0506592,-0.00305176,-0.354309,0.0349426,0.0276184
667,0.0363159,0.0271606,0.0308228,0.0254822,0.0354004,-0.00549316,-0.354309,0.0312805,0.0584412
667,0.0212097,0.00640869,0.0366211,0.106812,-0.00183105,-0.000762939,-0.370636,0.0238037,0.0624084
667,0.0434875,0.0218201,0.0494385,0.106506,0.0138855,0.00854492,-0.341949,0.0175476,0.0602722
667,0.0318909,-0.0105286,0.0448608,0.130463,0.0263977,0.00350952,-0.35553,0.00244141,0.0178528
667,0.0177002,-0.000915527,0.059967,0.117188,-0.0050354,0.0263977,-0.343323,0.00610352,-0.0193787
667,0.0341797,-0.000915527,0.0708008,0.0816345,0.000305176,0.00198364,-0.386658,0.0265503,-0.0144958
667,0.0134277,-0.0163269,0.0569153,0.0442505,-0.00396729,-0.00900269,-0.354767,0.0294495,-0.00137329
667,0.0386047,-0.00640869,0.0369263,0.119324,-0.0196838,0.0241089,-0.381775,0.0146484,0.0210571
667,-0.00595093,-0.0112915,-0.0639343,0.0720215,-0.00961304,0.00808716,-0.35141,0.00640869,0.00823975
668,-0.0228882,-0.0309753,-0.0985718,0.0628662,0.015564,0.0442505,-0.417023,-0.0123596,-0.014801
668,-0.0299072,-0.0778198,-0.120697,0.0382996,0.0393677,0.0215149,-0.385132,-0.0135803,-0.00747681
668,-0.0289917,-0.119324,-0.0834656,0.0552368,0.00762939,0.0105286,-0.404205,-0.00808716,-0.00946045
668,-0.0134277,-0.0836182,-0.0276184,0.0120544,0.0300598,0.032196,-0.44281,-0.0100708,-0.0260925
668,0.0250244,-0.045166,0.050354,0.0115967,0.0187683,0.00701904,-0.503693,-0.00595093,-0.00656128
668,-0.0128174,-0.0822449,0.0549316,-0.0189209,0.00564575,0.00747681,-0.562286,-0.0012207,-0.0115967
668,-0.0231934,-0.040741,0.035553,0.00320435,0.0108337,0.00335693,-0.584259,-0.0245667,-0.0480652
668,-0.00350952,-0.0369263,-0.0178528,0.0123596,0.0126648,0.0346375,-0.694122,-0.0161743,-0.0566101
668,0.010376,-0.0456238,-0.0062561,0.00244141,0.0195312,0.0335693,-0.835419,-0.0518799,-0.0628662
668,0.0271606,0.0177002,-0.0120544,-0.0157166,-0.00854492,0.0299072,-0.8992,-0.0474548,-0.0444031
669,0.0315857,0.0212097,0.0062561,-0.000152588,0.0115967,0.0595093,-0.965118,-0.0204468,-0.00961304
669,0.0195312,-0.020752,-0.0431824,-0.00183105,0.010376,0.0177002,-0.952606,0.00442505,0.0114441
669,0.0038147,-0.0357056,0.00854492,0.0267029,-0.00564575,0.00457764,-0.951843,0.0166321,-0.00106812
669,0.0172424,-0.0387573,0.0209045,0.0106812,0.0172424,0.00701904,-0.910034,0.0190735,0.0337219
669,0.0253296,-0.062561,-0.0201416,-0.00274658,0.00732422,-0.0209045,-0.848541,-0.0230408,0.00274658
669,0.0186157,-0.0871277,-0.017395,0.0241089,0.0187683,-0.01297,-0.744171,-0.0143433,0.0231934
669,0.0245667,-0.0439453,0.0196838,0.00961304,-0.00823975,-0.0382996,-0.622406,0.00762939,0.0375366
669,0.0317383,-0.0326538,0.000610352,0.0050354,0.0183105,-0.0280762,-0.550995,0.0308228,0.0357056
669,0.00411987,-0.0280762,0.00930786,0.0410461,0.00335693,-0.0401306,-0.464478,0.0463867,0.0657654
669,-0.0132751,-0.0215149,0.00228882,-0.0263977,0.00534058,-0.0233459,-0.328979,0.0257874,0.0526428
670,0.00595093,0.00869751,0.0180054,-0.0134277,0.0219727,-0.0421143,-0.277557,0.0117493,0.0343323
670,-0.00610352,-0.00564575,0.0328064,-0.0184631,-0.00991821,-0.0292969,-0.182495,0.0364685,0.0267029
670,0.0109863,-0.00579834,0.0196838,-0.000305176,-0.032196,-0.0140381,-0.0979614,0.0462341,0.0520325
670,0.0198364,0.018158,0.0515747,0.0282288,0.0228882,0.0576782,-0.0512695,0.0489807,0.0408936
670,0.0245667,-0.0238037,0.0131226,0.032959,0.00366211,0.00274658,0.0276184,0.0163269,-0.000152588
670,0.0102234,-0.0192261,0.0265503,0.037384,-0.0169373,0.000915527,0.100403,0.0241089,-0.00701904
670,0.0202942,-0.0328064,0.0666809,0.0398254,0.00335693,-0.0292969,0.154572,-0.00106812,-0.0242615
670,0.030365,-0.0384521,0.0634766,0.0349426,0.0495911,0.0669861,0.213928,0.0105286,0.0117493
670,0.0378418,-0.0473022,0.0418091,0.0656128,-0.0111389,0.0994873,0.261536,0.0100708,0.0216675
670,0.0294495,-0.0236511,0.0125122,0.0308228,0.00183105,0.139313,0.275116,0.00808716,0.00411987
671,0.0505066,-0.019989,-0.00488281,0.0956726,-0.0140381,0.181122,0.27298,0.0038147,-0.0198364
671,-0.0114441,-0.0273132,-0.00595093,0.145874,0.0332642,0.207367,0.260468,0.00320435,-0.0062561
671,-0.0160217,-0.0350952,-0.0274658,0.0292969,-0.0270081,0.109558,0.284424,0.0117493,0.00549316
671,0.00350952,0.00320435,-0.00915527,-0.0517273,0.00869751,0.00137329,0.327454,0.0227356,0.0180054
671,-0.00656128,-0.0384521,-0.0389099,-0.158691,0.00518799,-0.0665283,0.335999,-0.0119019,0.0212097
671,0.0234985,-0.0152588,-0.0245667,-0.128326,0.0267029,0.00854492,0.340118,0.0137329,0.0236511
671,0.0154114,0.03479,0.0132751,-0.0942993,0.0524902,0.00106812,0.344543,0.0105286,0.000610352
671,0.00778198,-0.00411987,-0.0253296,-0.0840759,0.0273132,0.0456238,0.370026,0.0146484,0.0263977
671,-0.00762939,-0.00915527,0.00991821,-0.0537109,0.0442505,0.00488281,0.39856,0.0268555,0.0361633
671,0.0190735,-0.0231934,0.000915527,-0.0578308,0.0143433,-0.000457764,0.430298,0.0352478,0.0309753
672,0.0111389,-0.0248718,0.0312805,0.0613403,0.00183105,-0.0112915,0.428619,-0.00320435,0.00732422
672,0.00366211,-0.0132751,0.0305176,-0.0352478,-0.00274658,-0.0241089,0.505371,0.00808716,0.0189209
672,0.0270081,-0.0274658,0.0192261,-0.0830078,-0.0128174,-0.040741,0.436859,0.0535583,0.032196
672,0.025177,-0.0279236,0.0144958,-0.0561523,-0.0186157,-0.0230408,0.470886,0.025177,0.0553894
672,0.00747681,-0.0508118,-0.00427246,-0.0604248,0.00274658,-0.00930786,0.465546,0.0276184,0.0405884
672,0.0112915,-0.0134277,-0.0328064,-0.0746155,-0.0234985,-0.000152588,0.435638,0.0205994,0.0364685
672,0.0183105,0.00854492,0.0152588,0.0454712,-0.0292969,0.0131226,0.44281,0.0219727,0.0534058
672,-0.00549316,-0.0492859,-0.00534058,0.0906372,-0.0418091,-0.0515747,0.440369,0.018158,0.0341797
672,-0.0186157,-0.00854492,0.0119019,0.125427,-0.0119019,-0.0193787,0.43396,-0.0131226,-0.000152588
672,-0.00320435,0.0126648,0.0108337,0.192261,-0.0210571,0.00778198,0.415955,0.0239563,0.00640869
673,-0.0189209,-0.0219727,0.00900269,0.162354,0.0120544,0.00488281,0.40451,0.0216675,-0.0120544
673,0.000762939,0.030365,0.0271606,0.0135803,0.00762939,-0.000305176,0.384674,0.0393677,0.00183105
673,0.00839233,0.0587463,-0.00595093,-0.143127,0.0317383,0.0244141,0.391998,0.00244141,-0.0238037
673,-0.00396729,-0.00518799,0.00411987,-0.168304,0.00564575,0.0273132,0.401306,0.0259399,0.0137329
673,-0.0114441,-0.000915527,0.00183105,-0.276184,0.0271606,0.0132751,0.413971,0.027771,-0.020752
673,0.0267029,0.00534058,0.0131226,-0.19043,0.0128174,-0.00473022,0.44632,0.014801,-0.020752
673,0.0430298,-0.00534058,0.0253296,-0.142517,0.0448608,0.00473022,0.458984,0.0120544,-0.0112915
673,0.0279236,0.0294495,0.00793457,-0.0372314,0.0141907,0.00106812,0.407867,0.0219727,-0.00518799
673,0.0242615,0.0379944,0.0294495,0.136566,0.00366211,0.0135803,0.396729,0.00427246,-0.00823975
673,0.00747681,0.0364685,0.00839233,0.0762939,0.0291443,0.0276184,0.408936,0.000915527,-0.0219727
674,0.0334167,0.0614929,-0.00457764,0.198669,0.0532532,0.00640869,0.392761,-0.00488281,-0.0201416
674,0.01297,0.0486755,-0.00717163,0.197144,0.0135803,-0.000305176,0.361633,0,-0.0222778
674,0.0216675,0.0984192,0.00473022,0.143738,0.0125122,0.0131226,0.376282,-0.00442505,0.0088501
674,0.0314331,0.121613,0.0088501,0.0708008,-0.000610352,-0.0297546,0.38681,0.0274658,0.00869751
674,0.0231934,0.106812,-0.0106812,0.0428772,0.000305176,-0.0254822,0.375671,0.0285339,-0.0177002
674,0.0241089,0.10025,0.0109863,0.0222778,-0.0228882,-0.000915527,0.377197,0.0215149,0.00839233
674,-0.0115967,0.0271606,0.017395,-0.00732422,-0.00518799,0.0265503,0.369263,0.0209045,0.00305176
674,-0.0106812,0.0834656,-0.0134277,-0.00610352,0.0161743,0.0154114,0.339813,0.0160217,0.045929
674,-0.00671387,0.0608826,0.00335693,-0.00350952,-0.0112915,-0.0186157,0.344391,0.00991821,0.030365
674,0.00564575,0.0834656,0.0106812,0.0189209,0.0192261,-0.00915527,0.357361,-0.00930786,0.0576782
675,-0.0166321,0.0770569,0.0186157,-0.0088501,0.0495911,-0.00274658,0.363617,0.0105286,0.0257874
675,-0.0160217,0.0509644,-0.0114441,0.0126648,0.0152588,-0.0088501,0.339355,0.0184631,0.032196
675,-0.0161743,0.0375366,0.0263977,0.0500488,0.00442505,0.000610352,0.275879,0.020752,-0.0050354
675,0.0109863,0.0318909,-0.00259399,0.0219727,0.0219727,0.00579834,0.278168,0.00213623,-0.00366211
675,0.0241089,0.00167847,0.0276184,0.027771,0.0050354,-0.0175476,0.259705,0.0144958,0.0169373
675,0.059967,0.0247192,0.0335693,0.0485229,0.0128174,-0.00427246,0.274658,0.0239563,0.00747681
675,0.0263977,0.0657654,0.0369263,0.0466919,0.0247192,0.0219727,0.275574,0.019989,-0.0114441
675,0.00213623,0.0672913,0.0166321,-0.0192261,0.0242615,0.0175476,0.296478,0.0213623,-0.0363159
675,-0.0172424,0.0645447,-0.00946045,-0.0701904,0.0460815,0.00976562,0.276184,0.0215149,0.00961304
675,-0.0350952,0.0808716,-0.00808716,-0.0241089,0.00564575,0.0158691,0.271759,0.00244141,-0.0143433
676,-0.0431824,0.0827026,0.00167847,-0.0286865,0.0144958,-0.00717163,0.27771,-0.0154114,-0.038147
676,0.0216675,0.100708,-0.0126648,-0.0215149,0.00335693,-0.0108337,0.236816,-0.0238037,-0.000915527
676,0.0196838,0.0810242,0.0257874,-0.0169373,-0.0215149,-0.0390625,0.223389,-0.0108337,0.00137329
676,0.00289917,0.0622559,0.0189209,-0.00305176,0.0349426,0.0167847,0.205383,-0.0898743,-0.00488281
676,-0.00808716,0.00869751,0.0126648,-0.0123596,0.0398254,0.0323486,0.214996,-0.000915527,-0.000152588
676,0.0262451,0.0308228,0.0131226,-0.0126648,0.0299072,-0.00305176,0.199127,0.0154114,0.0291443
676,0.0463867,0.0282288,0.0196838,0.000152588,0.00259399,-0.00671387,0.244904,0.0190735,0.0558472
676,0.0512695,0.0424194,-0.0186157,0.0411987,-0.00442505,0.0437927,0.299072,0.0135803,0.035553
676,0.0177002,0.0665283,-0.0337219,0.0325012,0.0366211,0.0436401,0.364227,0.0396729,0.0735474
676,0.00579834,0.0741577,0.00869751,0.045166,0.0227356,-0.0146484,0.415497,0.0492859,0.0712585
677,-0.0146484,0.0991821,0.0119019,0.00808716,0.032196,-0.0231934,0.48996,0.0311279,0.0349426
677,0.0128174,0.0773621,0.0306702,0.0244141,-0.00183105,-0.00137329,0.622406,0.0444031,0.0653076
677,0.0314331,0.0543213,0.00274658,0.0349426,0.00930786,0.000457764,0.747681,0.0102234,0.0515747
677,-0.00305176,0.0161743,-0.0152588,-0.0166321,0.00854492,0.0326538,0.777893,0.00244141,0.0375366
677,0.0149536,0.0230408,0.0228882,-0.00518799,0.00930786,0.0349426,0.756073,-0.000305176,0.0221252
677,0.00259399,-0.0216675,0.0144958,-0.0187683,0.0108337,-0.0386047,0.688019,0.00335693,0.00915527
677,-0.00946045,0.0302124,0.00442505,0.0338745,0.0312805,-0.102692,0.596466,0.00152588,0.0169373
677,-0.025177,0.0306702,0.0210571,0.00534058,0.0302124,-0.125427,0.540466,0.0187683,0.0140381
677,0.00595093,0.0430298,-0.00457764,0.0216675,0.0108337,-0.105286,0.447998,-0.00152588,-0.000915527
677,0.0257874,0.0120544,0.0125122,0.0750732,0.0163269,-0.0291443,0.310211,0.0328064,0.017395
678,0.0141907,0.0224304,0.0338745,0.0288391,0.0262451,0.0691223,0.198517,0.0230408,0.0143433
678,0.0178528,0.0210571,0.0299072,0.0343323,0.0460815,0.0894165,0.103912,-0.00656128,-0.00823975
678,-0.0282288,0.0245667,0.00305176,-0.0169373,0.0172424,0.0616455,0.0158691,0.00137329,0.00411987
678,-0.00717163,0.0335693,0.0396729,0.00152588,0.0108337,0.0592041,-0.0654602,-0.01297,0.0218201
678,0.0115967,-0.032196,0.00198364,0.0312805,-0.0193787,0.0915527,-0.144348,-0.00274658,-0.00183105
678,0.0367737,0.0189209,0.0135803,0.105896,0.0102234,0.105133,-0.262451,0.0062561,-0.00839233
678,0.0212097,-0.00564575,-0.00762939,0.162659,-0.0341797,0.101471,-0.358734,0.00152588,-0.0221252
678,0.0454712,0.0448608,0.015564,0.306396,0.0236511,0.113068,-0.391083,-0.0038147,-0.00457764
678,0.04776,0.0524902,0.0152588,0.294342,-0.0146484,0.207214,-0.476837,-0.00473022,-0.0134277
678,0.0485229,0.039978,0.038147,0.196533,-0.010376,0.0909424,-0.479736,-0.00350952,0.0253296
679,0.0215149,0.0704956,0.0366211,0.0682068,-0.0166321,-0.0320435,-0.449829,0.00244141,-0.0177002
679,0.0257874,0.0419617,0.00183105,0.045166,0.00808716,-0.00183105,-0.499268,0.0038147,-0.0204468
679,0.0372314,0.0357056,-0.00564575,-0.0895691,0.030365,0.0312805,-0.533447,-0.0233459,-0.0357056
679,0.0143433,-0.0248718,0.0169373,-0.316467,0.0395203,0.0389099,-0.513153,0.000305176,-0.0267029
679,-0.00946045,-0.040741,-0.000610352,-0.363312,0.0273132,0.0193787,-0.523376,-0.00946045,-0.0119019
679,-0.0135803,-0.0889587,0.0125122,-0.106354,0.0280762,0.00305176,-0.531921,-0.00427246,-0.00457764
679,0.0410461,-0.0810242,-0.000915527,-0.0390625,0.0245667,0.0396729,-0.491486,0.0234985,-0.00549316
679,0.0463867,-0.090332,0.0518799,-0.0152588,0.0228882,0.012207,-0.439758,0.00823975,-0.0192261
679,0.0524902,-0.0953674,0.0161743,-0.043335,0.00869751,-0.00366211,-0.41626,0.000610352,-0.022583
679,0.0375366,-0.0332642,0.022583,-0.211945,-0.0283813,-0.0463867,-0.4216,0.0289917,-0.0137329
680,0.020752,-0.0306702,0.00839233,-0.207825,-0.0408936,-0.039978,-0.406494,0.0204468,-0.0119019
680,0.0393677,-0.0114441,0.00457764,-0.157776,-0.0276184,-0.0463867,-0.390778,0.0172424,0.0158691
680,-0.00183105,-0.014801,0.00534058,-0.0421143,-0.0572205,-0.0534058,-0.385437,0.0102234,0.00442505
680,0.0149536,-0.00457764,0.0100708,0.0360107,-0.0697327,-0.0558472,-0.394135,-0.00671387,0.0384521
680,-0.00579834,-0.0186157,0.00488281,0.0177002,-0.0430298,-0.0675964,-0.43045,0.00839233,0.0318909
680,0.00686646,-0.0308228,0.000152588,0.0468445,-0.0344849,-0.0395203,-0.462799,0.00976562,0.035553
680,0.00747681,-0.0270081,0.0167847,0.0798035,-0.00717163,0.052948,-0.486908,0.0332642,0.0416565
680,-0.03479,-0.0439453,0.0102234,0.213318,0.00106812,0.0692749,-0.539856,0.0146484,0.0323486
680,-0.00930786,-0.0602722,-0.00976562,0.359802,-0.0038147,0.0566101,-0.597076,-0.00335693,0.00259399
680,-0.00549316,-0.0283813,0.00595093,0.351257,0.037384,-0.00198364,-0.639954,0.0111389,-0.0038147
681,0.0119019,-0.0456238,0.0236511,0.297852,0.0532532,-0.0549316,-0.671082,0.0396729,-0.0582886
681,0.00930786,-0.042572,0.0302124,0.177307,0.0386047,-0.0285339,-0.660095,0.0239563,-0.0140381
681,0.0402832,-0.0527954,0.0234985,0.106812,0.0532532,0.0224304,-0.647125,0.0462341,-0.0305176
681,0.0186157,-0.0306702,-0.010376,-0.0778198,0.0184631,0.0114441,-0.613403,-0.00732422,-0.0372314
681,-0.00213623,-0.00900269,-0.000152588,-0.206299,0.00778198,0.0227356,-0.598755,-0.00732422,-0.0535583
681,0.00839233,-0.0120544,-0.00671387,-0.16571,0.0270081,0.0222778,-0.587921,-0.0268555,-0.0358582
681,0.00747681,0.0111389,-0.00213623,-0.170593,0.0331116,0.0192261,-0.537109,0.0169373,0.00747681
681,-0.00762939,-0.015564,-0.00717163,-0.203247,-0.00396729,-0.0143433,-0.520477,-0.00396729,0.0352478
681,0.018158,-0.0492859,0.018158,-0.180664,0.018158,-0.0164795,-0.490417,0.0306702,0.0273132
681,-0.00930786,-0.018158,-0.0137329,-0.0476074,0.00946045,0.00335693,-0.429382,0.0318909,0.0205994
682,0.00427246,-0.0540161,-0.00991821,0.0820923,-0.00457764,-0.025177,-0.407562,0.0151062,-0.000762939
682,0.0221252,-0.0170898,0.00427246,0.0294495,-0.0144958,-0.00717163,-0.368805,0.0485229,0.0187683
682,-0.0105286,-0.0302124,0.0186157,0.0437927,-0.0390625,-0.0338745,-0.336761,-0.00228882,-0.0160217
682,0.00686646,-0.0158691,0.018158,0.0112915,-0.020752,-0.0115967,-0.313416,0.0218201,0.00930786
682,0.0283813,-0.0497437,-0.00915527,0.0215149,0.00854492,0.0012207,-0.278015,0.0204468,0.0276184
682,-0.0112915,-0.0396729,0.00228882,0.0163269,-0.00823975,-0.0158691,-0.262451,0.0117493,0.0210571
682,-0.0302124,-0.0234985,0.0128174,0.0288391,0.00473022,-0.00427246,-0.209198,0.017395,0.0160217
682,0.00793457,0.0108337,0.0158691,0.0259399,-0.00991821,0.0114441,-0.167389,0.0115967,0.0260925
682,-0.00808716,-0.0151062,0.00610352,0.0132751,0.0218201,-0.0205994,-0.177307,0.00183105,0.032196
682,-0.0109863,-0.0328064,0.0283813,0.0837708,0.00396729,-0.000305176,-0.108185,-0.00595093,0.0311279
683,-0.00854492,-0.0111389,0.0228882,0.0230408,-0.00137329,-0.0376892,-0.0814819,0.0141907,0.0337219
683,-0.0276184,-0.00198364,-0.015564,0.00976562,0.015564,-0.0352478,-0.0314331,0.012207,0.0531006
683,-0.0190735,0.0241089,-0.00610352,0.0405884,-0.0230408,-0.0195312,-0.072937,0.0344849,0.0158691
683,-0.0012207,0.0265503,0.00305176,-0.0366211,0.0230408,0.030365,-0.00549316,0.00823975,0.0320435
683,0.0115967,0.0106812,-0.0106812,-0.0543213,0.0241089,0.00259399,0.0172424,0.0689697,0.0163269
683,0.00335693,-0.0137329,-0.0125122,-0.0544739,-0.00213623,-0.00427246,0.0334167,0.0382996,0.000305176
683,0.0376892,-0.0209045,-0.00213623,-0.140228,0.00320435,-0.00183105,0.0630188,0.0137329,-0.0273132
683,0.0274658,-0.010376,0.015564,-0.200348,0.0274658,-0.00289917,0.0570679,0.00991821,-0.019989
683,0.0132751,-0.000762939,0.0422668,-0.126343,0.032196,0.0184631,0.0874329,-0.0088501,-0.000152588
683,0.000915527,-0.00961304,0.00793457,0.0038147,0.0245667,0.00305176,0.101471,-0.0239563,-0.0314331
684,0.017395,-0.00808716,0.0372314,0.123444,0.030365,0.0175476,0.118256,0.00305176,-0.0517273
684,-0.0189209,-0.0453186,0.0320435,0.17868,0.0512695,0.0254822,0.128021,-0.000152588,-0.0115967
684,0.0198364,-0.0588989,0.0218201,0.0520325,0.0466919,0.0337219,0.114136,-0.00183105,-0.0480652
684,0.037384,-0.0268555,0.0357056,0.0706482,0.0250244,0.0402832,0.123291,-0.0221252,-0.0114441
684,0.0108337,-0.00259399,0.00106812,0.0708008,0.0132751,0.010376,0.0642395,-0.00427246,-0.0126648
684,0.0350952,0.0187683,0.0418091,0.275879,0.0292969,0.00869751,0.101471,-0.00167847,-0.0314331
684,0.0106812,0.0227356,0.0549316,0.425873,0.059967,0.0267029,0.145416,0.014801,0.00350952
684,0.0306702,0.0643921,0.0189209,0.419006,0.0352478,0.0343323,0.141754,0.0151062,-0.0473022
684,0.0575256,0.0718689,0.01297,0.26886,0.0325012,0.0442505,0.158081,0.00778198,0.0137329
684,-0.00213623,0.0820923,0.032959,0.119324,0.0161743,0.0166321,0.126953,-0.039978,-0.0418091
685,-0.045929,0.0627136,0.0260925,-0.0422668,-0.0111389,0.018158,0.140076,0.0358582,-0.0267029
685,0.0157166,0.0428772,0.0167847,-0.261383,-0.00656128,0.00976562,0.184479,0.0137329,-0.0357056
685,-0.0164795,0.0170898,0.0149536,-0.283203,-0.0314331,-0.0308228,0.177612,0.0141907,-0.0328064
685,-0.0476074,-0.0257874,-0.00213623,-0.221252,-0.00473022,-0.018158,0.193024,0.0105286,-0.0132751
685,0.00259399,-0.0338745,0.00274658,-0.137482,0.0106812,-0.0106812,0.194397,-0.0378418,-0.0157166
685,0.0396729,-0.0492859,-0.0119019,-0.0848389,0.0408936,0.0308228,0.162048,-0.00671387,-0.000610352
685,0.0314331,-0.00701904,-0.0160217,-0.140839,0.00747681,0.014801,0.15152,-0.00579834,0.00427246
685,0.00534058,-0.00289917,0.00518799,-0.202179,0.0143433,0.025177,0.182343,0.00808716,0.0245667
685,0.0286865,0.0511169,0.0382996,0.0279236,-0.00793457,0.0236511,0.168762,0.0331116,0.0167847
685,-0.0134277,0.0598145,-0.0175476,0.0239563,-0.0177002,0.0134277,0.168762,0.0138855,0.0454712
686,-0.0263977,0.0582886,0.000305176,0.0326538,-0.0158691,-0.0308228,0.153046,0.0143433,0.0189209
686,-0.0247192,0.0593567,-0.00213623,0.0120544,-0.0151062,-0.00442505,0.20462,0.0317383,0.0234985
686,-0.00640869,0.0384521,0.00564575,0.0354004,-0.0172424,-0.00854492,0.206299,0.06073,0.0283813
686,0.0163269,-0.018158,0.00610352,0.0502014,-0.0262451,0.0135803,0.191803,0.0152588,0.0444031
686,0.0489807,-0.0549316,0.0115967,0.110016,-0.00640869,-0.00640869,0.199432,0.0105286,-0.00976562
686,0.0167847,0.00518799,0.0253296,0.166779,0.0038147,0.00793457,0.175934,-0.000457764,0.00320435
686,0.0239563,0.0505066,0.0344849,0.124664,0.00350952,0.000152588,0.176086,0.0132751,0.0161743
686,0.0100708,0.0440979,0.0184631,0.0857544,0.00167847,-0.0302124,0.197449,0.0248718,0.0184631
686,-0.0189209,0.0419617,0.038147,0.0810242,0.0294495,0.0135803,0.15976,0.0012207,0.0198364
686,-0.00854492,-0.0306702,-0.0163269,0.134125,0.0387573,0.0463867,0.146027,-0.00213623,-0.000762939
687,-0.0213623,-0.0415039,0.00534058,0.0474548,0.0387573,0.0247192,0.133362,0.00518799,-0.0141907
687,0.00350952,-0.0398254,-0.0183105,-0.161285,0.0125122,0.0119019,0.169067,-0.00457764,0.00900269
687,0.01297,-0.0134277,-0.012207,-0.145264,0.0613403,0.0514221,0.16037,0.0415039,-0.0050354
687,-0.00976562,-0.0242615,0.00183105,-0.13855,0.0294495,0.0396729,0.149994,0.0743103,0.0265503
687,-0.0132751,0.00396729,0.0231934,-0.0912476,0.0244141,0.0141907,0.177917,0.0267029,0.0323486
687,-0.020752,0.0210571,-0.00442505,-0.096283,0.00762939,0.00396729,0.192566,0.0218201,0.0190735
687,-0.00244141,0.043335,-0.00686646,-0.0971985,-0.00350952,0.00778198,0.176392,0.0166321,0.0117493
687,-0.000457764,0.063324,0.0012207,-0.0827026,-0.0309753,-0.0151062,0.202484,0.0221252,0.0163269
687,-0.0247192,0.0578308,0.0135803,-0.0854492,-0.0280762,-0.0291443,0.171814,0.00701904,-0.0135803
687,-0.00350952,0.0679016,0.00991821,-0.0376892,-0.0317383,-0.00183105,0.186462,0.0323486,0.0379944
688,0.0062561,0.0254822,0.0263977,-0.00854492,0.0172424,-0.00961304,0.197144,0.000762939,0.0111389
688,0.0231934,0.0247192,0.0299072,-0.0125122,-0.0123596,-0.000762939,0.183563,0.0161743,0.00793457
688,0.0332642,0.00595093,0.00564575,-0.032959,-0.0138855,0.0112915,0.19928,-0.0289917,-0.00976562
688,0.0437927,0.0283813,0.000305176,-0.0175476,0.0279236,0.0308228,0.180054,0.0205994,-0.0180054
688,0.0198364,0.045929,0.0161743,-0.00289917,0.0238037,0.00152588,0.18158,0.0190735,0.0306702
688,0.00213623,0.0743103,0.00198364,0.0279236,-0.00640869,0.0114441,0.177002,-0.00259399,0.00961304
688,-0.0163269,0.0567627,0.0012207,0.0843811,0.00518799,0.00411987,0.156403,0.0166321,0.00274658
688,-0.0454712,0.0424194,0.0140381,0.0746155,-0.0128174,0.0088501,0.174103,-0.00274658,-0.00732422
688,-0.0273132,0.0167847,0.00396729,0.0715637,-0.000610352,0.0259399,0.191803,0.0137329,0.00366211
688,0.0549316,-0.0546265,-0.0109863,0.0263977,0.0221252,-0.0180054,0.166779,0.0411987,0.0128174
689,0.071106,-0.0624084,0.0112915,0.0245667,0.0300598,0.00854492,0.188446,0.0241089,0.0292969
689,0.037384,-0.0723267,0.0364685,0.0161743,0.00198364,0.0177002,0.186005,0.0198364,0.00656128
689,0.0440979,-0.0248718,0.0062561,0.00640869,0.0218201,0.0253296,0.25238,0.00320435,0.0187683
689,0.0125122,-0.0352478,-0.0215149,0.00991821,0.0280762,0.00442505,0.274658,0.00106812,0.0131226
689,0.0244141,-0.00595093,0.0137329,0.120544,0.00518799,0.0215149,0.280762,0.0088501,-0.0201416
689,0.0253296,-0.00946045,-0.00335693,0.170746,0.00305176,0.0117493,0.372925,0.00518799,-0.00183105
689,0.0283813,0.0163269,0.017395,0.160217,0.010376,0.0309753,0.438995,-0.00335693,-0.0134277
689,0.0473022,-0.0140381,0.0180054,0.164185,0.0274658,0.0190735,0.530548,0.00579834,-0.00259399
689,-0.0157166,-0.00915527,-0.00762939,0.0672913,0.00549316,0.0231934,0.65094,-0.0270081,0.01297
689,-0.0167847,-0.000762939,-0.0189209,-0.131989,0.0364685,0.025177,0.761566,-0.0183105,-0.00335693
690,0.0167847,0.0198364,-0.0146484,-0.29129,0.00335693,0.0233459,0.752258,0.0186157,0.0170898
690,-0.0120544,0.0105286,0.0241089,-0.11322,0.0279236,-0.0305176,0.676575,0.0309753,0.0164795
690,-0.0105286,0.0263977,0.0216675,-0.110016,0.0254822,-0.0680542,0.59906,0.00549316,0.00442505
690,-0.0111389,0.0332642,0.0437927,0.00549316,0.0224304,-0.0276184,0.519867,-0.000915527,-0.0231934
690,0.00427246,0.0454712,0.0216675,0.0622559,0.012207,-0.0546265,0.361786,0.00518799,-0.0250244
690,0.0134277,0.0473022,0.00915527,0.0642395,-0.000610352,-0.0584412,0.266418,-0.00854492,-0.00778198
690,0.0241089,0.0140381,0.0209045,-0.0558472,-0.014801,0.0201416,0.200195,0.0256348,0.000152588
690,0.0335693,0.0331116,0.00869751,-0.23056,-0.0411987,0.0897217,0.0750732,0.0263977,-0.00244141
690,0.0279236,0.01297,0.00274658,-0.229492,-0.0299072,0.130615,-0.0311279,0.00213623,0.00289917
690,0.0401306,0.00167847,0.04776,-0.0534058,-0.0282288,0.10376,-0.136566,0.0318909,-0.00686646
691,0.00106812,-0.0125122,0.0250244,0.140228,0.00778198,0.0419617,-0.213318,-0.0038147,-0.0160217
691,0.00518799,0.0364685,0.0276184,0.126953,0.015564,-0.0413513,-0.231171,0.00762939,0.0238037
691,-0.00839233,0.0218201,0.0111389,0.111389,0.0227356,-0.0140381,-0.276031,-0.00488281,0.0386047
691,0.0062561,0.0195312,0.010376,0.102386,0.00320435,-0.0253296,-0.285339,0.0221252,0.020752
691,0.020752,0.0193787,0.0215149,0.113983,-0.0140381,-0.0515747,-0.344849,0.014801,0.0379944
691,0.0186157,-0.00823975,0.0132751,0.116425,0.00534058,-0.0311279,-0.397491,0.00366211,0.0582886
691,-0.00183105,-0.00350952,0.0149536,0.112915,0.0296021,0.0624084,-0.420837,0.00320435,0.0112915
691,0.0131226,0.0454712,-0.00823975,0.0650024,0.00717163,0.0532532,-0.470886,0.0268555,0.0112915
691,-0.0202942,0.00656128,-0.00869751,0.0233459,0.00228882,-0.0170898,-0.499115,0.0106812,0.00839233
691,0.00961304,0.0131226,0.0204468,0.00320435,0.0115967,0.00228882,-0.513763,0.00686646,0.015564
692,-0.00808716,-0.0111389,-0.00793457,-0.0144958,0.0292969,0.0624084,-0.52475,-0.0138855,0.00305176
692,0.00198364,-0.00946045,-0.0128174,0.0559998,0.0410461,0.096283,-0.515289,0.043335,0.0282288
692,-0.01297,-0.00915527,-0.0131226,0.0291443,0.0410461,0.0819397,-0.52475,0.020752,0.0276184
692,-0.00137329,-0.00610352,-0.000915527,-0.0836182,0.00396729,0.0511169,-0.480652,0.0376892,0.022583
692,-0.025177,-0.0231934,0.00228882,-0.127563,0.0244141,0.0170898,-0.41214,-0.00671387,-0.000457764
692,-0.00534058,-0.00473022,0.0161743,-0.0941467,0.00549316,-0.0360107,-0.441132,-0.0106812,0.0166321
692,0.0532532,-0.000610352,0.0238037,-0.186615,-0.0167847,-0.0274658,-0.41748,0.00808716,0.0140381
692,0.0404358,0.0178528,0.00915527,-0.2211,-0.0288391,-0.0364685,-0.443115,0.00717163,0.0193787
692,0.0299072,0.0556946,0.0279236,-0.165558,0.00732422,-0.015564,-0.436401,0.0167847,-0.00396729
692,0.0198364,0.0213623,-0.00656128,-0.187683,0.0196838,-0.0292969,-0.462189,0.00167847,0.0289917
693,0.032959,-0.0149536,0.012207,0.00152588,0.0149536,0.0248718,-0.466919,-0.0120544,0.0212097
693,-0.00823975,0.0254822,-0.0140381,0.204315,0.0102234,0.0158691,-0.475922,-0.014801,-0.000152588
693,0.000457764,0.0563049,0.0144958,0.186005,-0.00335693,-0.022583,-0.469208,0.0279236,0.0189209
693,0.0253296,0.0564575,-0.00183105,0.122833,0.00305176,-0.0511169,-0.46875,-0.00854492,0.00747681
693,0.032196,0.0689697,-0.00671387,0.108643,-0.0297546,-0.0422668,-0.445251,0.01297,0.0102234
693,0.0344849,0.0559998,-0.00854492,0.087738,-0.0297546,-0.0724792,-0.434418,0.00869751,0.0100708
693,0.0314331,0.0242615,0.00839233,0.0770569,0.00396729,-0.0422668,-0.406952,0.00808716,0.0100708
693,0.0236511,0.0311279,0.0222778,0.0428772,-0.00823975,0.0169373,-0.378418,0.00610352,0.00762939
693,0.00457764,0.0474548,-0.00808716,0.0605774,0.014801,0.0569153,-0.35202,-0.0204468,-0.00320435
693,-0.0790405,0.0143433,-0.0218201,0.0744629,-0.0012207,0.0288391,-0.318451,-0.00671387,0.00259399
694,-0.0523376,-0.0120544,0.0219727,0.124512,-0.00274658,-0.0613403,-0.270386,0.00656128,-0.000457764
694,0.0038147,-0.0517273,0.00213623,0.113831,0.00869751,-0.091095,-0.252838,0.00427246,-0.010376
694,-0.0209045,-0.121765,-0.0175476,0.11322,-0.00305176,0.0166321,-0.224762,-0.0114441,-0.0169373
694,-0.00701904,-0.122986,0.0436401,0.114288,0.0454712,0.0709534,-0.180969,0.0212097,0.00167847
694,-0.00900269,-0.121613,-0.00946045,0.173798,0.0212097,0.103912,-0.188751,-0.00183105,-0.0424194
694,0.0205994,-0.088501,0.0196838,0.184326,0.052948,0.0926208,-0.16571,-0.0123596,-0.0218201
694,0.0267029,-0.0233459,0.0259399,0.137024,0.020752,0.0320435,-0.136719,0.0112915,-0.0109863
694,0.00747681,-0.00534058,-0.00167847,0.00930786,0.0140381,0.014801,-0.126038,-0.00793457,-0.0239563
694,0.0442505,-0.00274658,0.00289917,-0.171661,0.0299072,0.0337219,-0.118713,0.0465393,0.00259399
694,0.0332642,-0.0180054,0.0268555,-0.232391,0.0227356,0.0715637,-0.0648499,0.0326538,0.0360107
695,0.0767517,0.0267029,0.0195312,-0.307465,0.00274658,0.0456238,0.00152588,-0.0012207,-0.0115967
695,0.0276184,0.038147,-0.0152588,-0.315552,0.0112915,-0.0291443,0.0390625,-0.0100708,-0.00747681
695,0.0361633,0.0340271,-0.0131226,-0.195312,-0.0186157,0.00167847,0.0292969,0.00869751,-0.00183105
695,0.00839233,0.0302124,0.00259399,-0.0849915,0.00335693,-0.0579834,0.0985718,0.0192261,0.00778198
695,0.0038147,0.0312805,-0.0135803,-0.025177,0.027771,-0.0639343,0.137482,0.0274658,0.0128174
695,0.00686646,0.0192261,0.00335693,-0.00396729,0.0285339,-0.0732422,0.126648,-0.00747681,0.0119019
695,0.00839233,0.0263977,0.0106812,-0.00640869,0.0561523,-0.0497437,0.153198,0.0198364,0.0184631
695,-0.0108337,0.0489807,-0.00366211,0.0257874,0.0375366,-0.0392151,0.159302,0.00808716,0.0215149
695,-0.0198364,0.0236511,-0.0111389,0.0253296,0.0387573,0.000152588,0.182343,0.0138855,0.00869751
695,0.00564575,0.00595093,0.0126648,0.0646973,-0.0576782,0.0624084,0.197601,0.00930786,0.0244141
696,0.0152588,0.00366211,0.0224304,0.0549316,-0.0370789,-0.00228882,0.210571,0.0137329,0.0335693
696,0.0192261,0.0485229,-0.0062561,0.038147,-0.0184631,-0.0724792,0.243225,-0.00717163,0.0335693
696,0.00259399,0.0256348,-0.00244141,0.0140381,0.0576782,-0.0411987,0.239716,-0.03479,0.0134277
696,0.00152588,0.0242615,0.0315857,0.032196,0.0570679,-0.0390625,0.280914,0.0186157,0.0196838
696,-0.0474548,0.0444031,0.0280762,0.0424194,0.0570679,-0.0105286,0.261993,0.0146484,0.0192261
696,0.0166321,0.0306702,-0.00930786,0.0552368,0.0415039,0.0219727,0.23407,0.0234985,0.00152588
696,0.0062561,0.0233459,0.0108337,0.0363159,-0.00473022,0.14679,0.188293,0.00610352,0.00869751
696,0.00442505,-0.0062561,0.0111389,-0.032959,-0.0175476,0.147705,0.161438,0.0012207,0.0202942
696,0.0100708,-0.0448608,-0.000305176,-0.0361633,-0.000610352,0.12619,0.125275,0.0408936,0.0088501
696,0.0393677,-0.0376892,0.00427246,-0.0114441,0.0157166,0.0784302,0.153809,0.00320435,0.00106812
697,0.020752,-0.014801,0.00686646,0.0198364,0.0338745,0.0317383,0.132751,0.00579834,0.0123596
697,0.00640869,0.0126648,0.00167847,0.0317383,0.0221252,0.0410461,0.144806,0.0172424,-0.0125122
697,-0.000610352,0.0430298,0.00167847,0.0709534,-0.0221252,0.0260925,0.146332,0.0172424,-0.0205994
697,0.0105286,0.0137329,0.015564,0.0721741,-0.0326538,-0.0267029,0.150909,0.0332642,0.0115967
697,0.00717163,0.0674438,0.0195312,0.141449,-0.043335,-0.00595093,0.15625,0.0302124,0.0234985
697,0.0149536,0.0105286,0.0221252,0.090332,0.0270081,0,0.200195,0.0218201,-0.00289917
697,-0.000457764,-0.00701904,0.0126648,0.00137329,0.0479126,-0.00869751,0.182648,-0.0134277,-0.014801
697,0.00671387,-0.0553894,0.0279236,-0.0762939,0.00961304,-0.0306702,0.228882,0.000305176,-0.000152588
697,0.0418091,-0.0219727,0.0630188,-0.124054,-0.039978,-0.0138855,0.240479,-0.00671387,-0.0132751
697,0.0244141,-0.0326538,0.0134277,-0.152435,-0.00671387,0.00320435,0.213165,-0.0354004,-0.015564
698,-0.0202942,-0.00778198,0.0337219,-0.0822449,0.0244141,-0.00335693,0.224915,0.0268555,-0.0123596
698,0.0119019,0.0192261,0.0204468,-0.0491333,-0.00640869,-0.0563049,0.258636,-0.0244141,0.00335693
698,0.0439453,-0.0178528,-0.00274658,-0.085144,-0.0283813,-0.0840759,0.264282,0.0144958,-0.0396729
698,0.0262451,-0.0134277,0.0260925,-0.022583,0.0224304,-0.163727,0.284729,-0.0286865,-0.0279236
698,0.00762939,-0.0228882,0.00213623,0.0198364,0.0111389,-0.239258,0.296326,-0.00274658,0.00244141
698,0.0126648,0.0570679,0.0300598,0.0297546,0.0340271,-0.214081,0.319214,0.0062561,0.0152588
698,0.00640869,0.0415039,-0.00717163,0.0375366,0.0166321,-0.177612,0.310211,-0.0257874,0.0114441
698,0.0198364,0.0204468,0.00183105,0.0317383,0.0473022,-0.136414,0.270844,0.0154114,0.00167847
698,0.0434875,0.052948,0.00106812,0.0556946,0.0204468,-0.0544739,0.218658,0.00854492,0.0120544
698,0.0401306,0.0767517,-0.0202942,0.0450134,0.0125122,0.042572,0.190735,-0.00244141,-0.030365
699,0.0198364,0.0813293,-0.00579834,0.0254822,0.00747681,0.111694,0.149689,0.0360107,0.0440979
699,-0.000762939,0.103302,-0.0468445,0.0384521,0.0389099,0.157623,0.16983,-0.0120544,0.0308228
699,-0.0320435,0.0686646,-0.0582886,0.0210571,-0.00350952,0.0198364,0.166779,0.0282288,0.0552368
699,-0.0787354,0.00732422,-0.0463867,0.0202942,-0.0500488,0.0369263,0.0895691,-0.00335693,0.0253296
699,-0.0502014,0.0216675,-0.0138855,0.0584412,-0.0505066,0.195007,0.0733948,0.0250244,0.0584412
699,-0.0228882,-0.0695801,0.0114441,0.0556946,-0.0363159,0.155945,0.0601196,-0.0038147,0.0219727
699,0.0662231,-0.0709534,0.00152588,0.0842285,-0.00946045,0.123596,0.0540161,0.00930786,0.0259399
699,0.0646973,-0.0521851,-0.0250244,0.141754,-0.00671387,0.207672,0.0750732,0.0236511,0.0468445
699,0.0213623,-0.0227356,0.0215149,0.152283,-0.0144958,0.260925,0.0579834,0.00167847,0.0524902
699,0.0215149,-0.0323486,0.0242615,0.123749,-0.0108337,0.269318,0.0366211,0.0372314,0.0270081
700,0.0437927,-0.0228882,-0.00350952,0.110321,-0.0437927,0.166168,0.0457764,0.0157166,0.0498962
700,-0.0228882,-0.000305176,0.0186157,-0.0186157,-0.037384,0.0239563,0.0552368,-0.022583,0.037384
700,-0.000457764,-0.00610352,0.00549316,-0.136108,-0.0262451,0.0062561,0.0595093,-0.00152588,0.00946045
700,0.0308228,-0.00289917,0.0363159,-0.142975,0.00213623,0.0222778,0.0701904,0.0146484,0.0274658
700,-0.0167847,-0.00915527,0.0732422,-0.283203,0.00106812,-0.0202942,0.0669861,0.0100708,0.0239563
700,-0.00137329,0.010376,0.0971985,-0.238647,0.0244141,-0.0318909,0.122375,-0.0132751,0.0141907
700,0.00335693,0.0280762,0.0923157,-0.0949097,0.0132751,-0.00427246,0.0878906,0.00488281,0.010376
700,0.0379944,0.00213623,0.0500488,0.0320435,0.0244141,-0.0262451,0.0723267,0.0149536,-0.0112915
700,-0.00732422,-0.0378418,0.0296021,0.0614929,0.0289917,0.0138855,0.0845337,0.00686646,0.00259399
700,0.012207,-0.0360107,0.0190735,-0.019989,0.0331116,0.00946045,0.127869,0.0192261,0.00427246
701,0.00946045,0.0134277,0.00259399,-0.0230408,0.0546265,-0.0354004,0.0942993,0.0241089,0.00259399
701,0.0294495,-0.0012207,-0.014801,0.0253296,0.0312805,-0.0949097,0.0450134,0.0166321,-0.0178528
701,0.0154114,-0.00152588,-0.0218201,0.0512695,0.0468445,-0.117188,0.0820923,0.0195312,0.00961304
701,0.000610352,-0.0238037,-0.0636292,0.0198364,0.0259399,-0.22644,0.075531,-0.0257874,-0.030365
701,0.00534058,0.00152588,-0.0630188,0.00747681,0.059967,-0.26947,0.0994873,-0.012207,-0.0119019
701,-0.00717163,-0.00289917,-0.0447083,0.0186157,0.0445557,-0.230408,0.119324,-0.00976562,-0.0143433
701,-0.0177002,0.0367737,-0.00305176,0.0836182,-0.00457764,-0.220337,0.0946045,-0.0038147,0.0415039
701,0.00427246,0.0387573,-0.017395,0.0602722,0.0204468,-0.00564575,0.0314331,0.0062561,-0.00946045
701,0.0389099,0.0186157,0.022583,0.0604248,0.00579834,0.140533,-0.0111389,0.022583,0.0239563
701,0.050354,-0.0154114,0.0221252,0.0698853,0.0784302,0.262146,-0.0395203,0.010376,-0.00396729
702,0.0260925,-0.00915527,-0.00488281,0.0219727,0.0880432,0.184326,-0.120239,0.000152588,0.0157166
702,0.0515747,-0.00778198,0.0131226,0.0358582,0.0265503,0.0822449,-0.188904,0.0323486,0.0167847
702,0.0190735,0,0.0306702,0.0393677,-0.0590515,0.0395203,-0.198517,0.000305176,-0.00198364
702,0.0605774,0.0146484,0.0404358,0.0126648,-0.0444031,0.057373,-0.148926,-0.00274658,-0.000305176
702,0.0279236,0.0125122,0.0247192,-0.0352478,-0.0605774,0.0576782,-0.131226,0.0402832,0.0239563
702,0.025177,0.030365,0.0442505,0.037384,-0.037384,0.11795,-0.14801,0.00167847,0.0187683
702,-0.0195312,0.0559998,0.0144958,0.0790405,-0.0852966,0.059967,-0.137787,0.000762939,0.018158
702,-0.0276184,0.0775146,0.000762939,0.117493,-0.0436401,0.0186157,-0.196075,-0.00183105,0.0257874
702,-0.00320435,0.0563049,-0.0114441,0.0550842,-0.0379944,0.0732422,-0.229645,0.0108337,-0.0038147
702,0.0154114,0.0535583,-0.00152588,-0.0166321,-0.0454712,0.0878906,-0.223999,0.00457764,-0.00106812
703,0.00793457,0.0546265,-0.0100708,-0.0643921,-0.0102234,0.0471497,-0.21286,0.0141907,0.00549316
703,0.0263977,0.0389099,0.0125122,-0.0535583,0.0126648,0.0402832,-0.197449,-0.00106812,-0.0151062
703,-0.0300598,-0.00564575,-0.0738525,-0.059967,0.0143433,0.00701904,-0.150757,-0.0331116,-0.010376
703,-0.0259399,0.0126648,-0.134277,-0.0123596,-0.00183105,-0.0271606,-0.170746,-0.00946045,-0.027771
703,-0.00473022,0.017395,-0.127716,-0.0697327,0.0630188,-0.085144,-0.158539,-0.0119019,-0.00106812
703,-0.00350952,-0.0012207,-0.0868225,-0.059967,0.0559998,-0.178833,-0.124512,-0.0289917,-0.00701904
703,0.0106812,0.00778198,-0.0866699,-0.0357056,0.0700378,-0.241089,-0.0871277,0.00411987,-0.0062561
703,0.0172424,-0.0167847,-0.058136,0.00411987,0.0843811,-0.287781,0.00442505,-0.0238037,0.0123596
703,-0.0152588,0.0117493,0.0305176,0.0363159,0.132599,-0.28244,0.0213623,-0.00457764,0.000610352
703,0.00183105,0.00396729,0.119171,0.0369263,0.174713,-0.166168,-0.0341797,0.00747681,0.0106812
704,-0.017395,0.0335693,0.102997,0.0918579,0.17746,0.0497437,-0.04776,0.00427246,0.0244141
704,0.0062561,0.00961304,0.0741577,0.0436401,0.172577,0.0888062,-0.132599,-0.00854492,0.022583
704,0.00106812,-0.00854492,0.0430298,-0.00549316,0.114899,-0.0650024,-0.187378,-0.000152588,0.0106812
704,0.0285339,0.0228882,0.0334167,-0.0268555,-0.0350952,-0.0584412,-0.189362,-0.00274658,0.0271606
704,-0.00335693,0.000305176,-0.0119019,-0.0167847,-0.102386,0.0260925,-0.222473,-0.00762939,0.00717163
704,0.00701904,0.0454712,0.0260925,0.0605774,-0.122375,0.161285,-0.187683,0.00442505,0.0128174
704,0.00900269,0.0332642,0.0210571,0.00732422,-0.242157,0.0230408,-0.106201,0.00228882,-0.00137329
704,0.0195312,0.0343323,-0.0221252,-0.0166321,-0.155487,-0.0221252,-0.0527954,0.0106812,-0.0161743
704,0.019989,0.0538635,-0.0117493,0.0219727,-0.0817871,0.010376,-0.0973511,0.00946045,-0.0143433
704,-0.0323486,0.0474548,0.0184631,0.0231934,-0.0660706,0.156097,-0.216217,0.0186157,0.0134277
705,0.0012207,0.0740051,0.0614929,0.0544739,-0.121613,0.37796,-0.279541,-0.00762939,-0.00930786
705,0.035553,0.0546265,0.0778198,0.0260925,-0.0839233,0.375366,-0.270081,-0.0131226,0.0105286
705,0.0358582,0.0372314,0.0622559,-0.00915527,-0.0679016,0.202179,-0.284271,0.0234985,0.000915527
705,0.00198364,-0.0309753,0.0532532,-0.088501,-0.0219727,0.133057,-0.279388,-0.00183105,-0.000762939
705,0.00991821,-0.0697327,0.0262451,-0.0411987,0.0267029,0.100098,-0.266113,0.0285339,-0.00442505
705,-0.00686646,-0.098877,0.0193787,-0.0585938,0.0161743,0.138702,-0.234375,0.0088501,0.00808716
705,-0.000610352,-0.0872803,0.0209045,-0.00778198,0.0350952,0.146484,-0.182495,-0.000610352,0.0135803
705,0.00732422,-0.0259399,0.0062561,0.0259399,-0.00793457,0.0395203,-0.173798,0.0187683,0.00167847
705,0.0804138,-0.00259399,0.0219727,0.0170898,0.0259399,0.0564575,-0.149384,0.0288391,-0.00106812
705,0.0598145,-0.0216675,0.0253296,0.015564,0.0250244,0.052948,-0.149689,0.0119019,0.020752
706,0.0259399,0.0817871,0.027771,0.00701904,0.050354,0.0262451,-0.12558,0.00900269,0.0250244
706,0.0476074,0.0904846,0.0422668,-0.0714111,0.0267029,-0.0590515,-0.113525,-0.012207,0.0248718
706,0.062561,0.0901794,0.0653076,-0.0262451,0.0210571,-0.0643921,-0.106964,0.0238037,0.00762939
706,-0.00137329,0.0509644,0.0506592,0.0180054,0.00610352,-0.0830078,-0.078125,0.0137329,0.0170898
706,-0.00488281,0.0178528,0.0875854,0.00259399,0.0175476,-0.088501,-0.0621033,0.0205994,0.0112915
706,0.00137329,-0.00411987,0.0592041,0.0288391,0.063324,-0.0881958,0.0204468,-0.00442505,0.0100708
706,-0.00747681,-0.0146484,-0.0508118,0.0157166,0.10376,-0.0634766,0.0668335,0.0137329,0.00213623
706,0.00228882,-0.00762939,-0.0364685,0.0205994,0.0622559,-0.0143433,0.0917053,-0.00213623,0.0140381
706,0.0146484,-0.0050354,-0.0866699,0.0204468,0.0180054,0.03479,0.104523,0.015564,-0.00518799
706,-0.00808716,-0.00640869,-0.0915527,0.00961304,-0.0323486,-0.0428772,0.118866,0.0215149,0.0154114
707,-0.014801,-0.0187683,-0.0808716,-0.00183105,-0.0367737,-0.0740051,0.0779724,0.0137329,0.022583
707,-0.00793457,-0.00137329,-0.0898743,0.0463867,-0.0364685,-0.0537109,0.015564,-0.000305176,0.0134277
707,-0.00152588,0.0137329,-0.0769043,0.0401306,0.0294495,-0.00747681,-0.0144958,-0.027771,-0.00152588
707,-0.00778198,0.0160217,-0.0291443,0.00564575,0.0886536,0.0579834,-0.0378418,0.0152588,0.0117493
707,0.0242615,0.0271606,-0.00534058,0.00350952,0.0761414,0.0216675,0.0422668,-0.00732422,0.0238037
707,-0.00244141,0.0183105,-0.00244141,-0.0114441,0.0440979,0.0283813,0.0923157,0.00854492,-0.00244141
707,0.00244141,0.000457764,0.0167847,0.00228882,-0.0195312,0.0584412,0.0794983,0.00961304,0.0222778
707,0.0248718,0.0216675,0.0495911,0.0102234,-0.0566101,-0.00488281,0.0961304,0.00595093,-0.00473022
707,0.00595093,0.0123596,0.0442505,0.0282288,-0.0469971,-0.00930786,0.137482,0.00473022,0.00411987
707,0.0395203,-0.0415039,0.00854492,0.0392151,-0.00549316,0.0192261,0.0730896,0.000762939,0.000152588
708,0.0476074,-0.0198364,0.0378418,0.00976562,0.0364685,-0.0149536,0.0453186,0.0376892,0.014801
708,0.0300598,-0.0164795,0.0288391,-0.00152588,0.063324,-0.00228882,0.0195312,0.00930786,0.0160217
708,0.035553,-0.0236511,0.0613403,0.00610352,0.0927734,-0.0202942,0.0430298,-0.00198364,-0.0132751
708,0.0450134,-0.0088501,0.0202942,0.0123596,0.137787,-0.055542,0.106964,0.0285339,0.038147
708,0.00366211,-0.0112915,0.0212097,-0.00213623,0.161896,-0.0665283,0.142822,-0.00717163,0.0280762
708,0.0306702,0.00762939,-0.00823975,0.0427246,0.176697,-0.0216675,0.111694,0.0152588,-0.00564575
708,-0.010376,-0.0186157,0.00564575,0.0564575,0.168915,-0.00671387,0.111237,0.0189209,0.0263977
708,0.000152588,0.00289917,0.0219727,0.00564575,0.0762939,-0.0384521,0.121765,0.00946045,0.0128174
708,-0.0312805,-0.0146484,0.0131226,-0.000762939,0.0854492,-0.0109863,0.127563,-0.000915527,0.0154114
708,-0.000152588,-0.0119019,-0.019989,0.0224304,0.0679016,0.0170898,0.154572,-0.0305176,0.0170898
709,-0.00839233,0.00854492,-0.0183105,-0.0415039,0.0663757,-0.0315857,0.16037,0.00793457,0.0323486
709,0.0128174,-0.000915527,-0.0038147,-0.039978,0.0810242,-0.0505066,0.206604,0.0117493,-0.00839233
709,-0.00518799,0.00289917,-0.00167847,-0.0434875,0.0598145,-0.110016,0.212402,0.0350952,-0.0115967
709,0.0190735,0.00488281,0.0109863,0.0483704,0.0682068,-0.157318,0.245361,0.0154114,-0.00549316
709,-0.0154114,-0.0157166,0.0367737,0.0717163,0.0775146,-0.228729,0.248108,0.000762939,-0.0294495
709,0.0201416,-0.0309753,-0.00656128,0.0395203,-0.00823975,-0.245667,0.318451,-0.00152588,-0.00411987
709,-0.00518799,-0.0196838,-0.0140381,0.0184631,-0.0723267,-0.100708,0.282135,0.00869751,0.0154114
709,0.00976562,-0.00717163,-0.0132751,0.0422668,-0.096283,0.12085,0.177765,0.0418091,-0.00534058
709,-0.015564,-0.00198364,-0.0144958,0.0291443,-0.0518799,0.276794,0.119171,-0.0248718,-0.00228882
709,-0.0354004,0.00411987,-0.014801,0.0257874,-0.0315857,0.237885,0.0280762,0.0038147,-0.00259399
710,-0.0184631,0.0234985,-0.000457764,0.0526428,-0.0134277,0.194702,0.0257874,0.0267029,0.0349426
710,-0.000915527,0.0195312,-0.0286865,-0.0126648,-0.00534058,0.19928,-0.00946045,0.0134277,0.00473022
710,-0.0352478,0.0468445,-0.00457764,-0.00656128,-0.0502014,0.154724,0.0479126,0.00991821,0.0151062
710,-0.0115967,0.0616455,0.0111389,-0.0221252,-0.0558472,0.0949097,0.0674438,0.0340271,0.022583
710,-0.00289917,0.0338745,0.0228882,-0.0137329,-0.0265503,0.0514221,0.0857544,0.0212097,0.0190735
710,0.042572,-0.0216675,0.0134277,0.0175476,-0.0393677,0.0430298,0.12619,0.00671387,-0.00793457
710,0.0424194,-0.0436401,0.014801,0.0408936,-0.0195312,0.0262451,0.144958,-0.00579834,0.0253296
710,0.0323486,-0.0239563,0.0169373,0.0534058,-0.0398254,0.0312805,0.146942,0.0227356,0.00717163
710,0.0100708,-0.00488281,0.0248718,0.0242615,-0.0437927,0.00411987,0.168304,0.0163269,-0.017395
710,0.0257874,-0.022583,0.00579834,-0.00152588,-0.0215149,-0.00183105,0.162659,0.0268555,0.0187683
711,0.01297,0.000152588,0.00900269,-0.00579834,0.0257874,0.01297,0.123444,0.0109863,0.00213623
711,0.0312805,-0.0012207,0.0256348,-0.0222778,0.0135803,0.00854492,0.106049,0.0254822,0.0166321
711,0.00579834,0.0166321,-0.00473022,-0.0878906,0.00610352,-0.0117493,0.137024,-0.00335693,-0.0247192
711,0.0396729,0.0309753,0.0320435,-0.0172424,0.0390625,-0.010376,0.124664,0.00701904,0.0163269
711,0.0231934,0.0222778,0.0390625,-0.0259399,0.0209045,-0.0328064,0.132599,0.0131226,0.038147
711,0.0242615,0.0650024,0.00396729,-0.0372314,0.0134277,-0.0463867,0.110321,0.0254822,0.00305176
711,0.0144958,0.0389099,0.022583,-0.0448608,0.0566101,-0.0386047,0.0840759,0.0312805,0.00854492
711,-0.00549316,0.00350952,0.020752,-0.0137329,0.00900269,-0.0161743,0.0796509,0.00640869,0.0132751
711,0.0158691,0.0184631,0.0318909,0.0257874,-0.0537109,-0.00900269,0.12207,0.0137329,0.00350952
711,-0.00228882,0.000305176,-0.00228882,0.015564,-0.0447083,-0.0166321,0.0375366,0.00717163,-0.0193787
712,0.0216675,0.00366211,-0.00854492,0.00839233,0.00595093,0.0112915,0.0502014,0.0175476,0.0209045
712,0.00167847,0.00442505,-0.0218201,-0.00732422,0.0291443,-0.017395,0.0497437,0.0100708,0.00991821
712,-0.000915527,0.00991821,-0.0288391,-0.0038147,-0.0302124,-0.00961304,0.0239563,0.0212097,0.014801
712,0.0254822,0.000762939,-0.00137329,0.0108337,-0.00106812,0.0189209,0.00152588,0.00442505,0.000762939
712,0.0177002,0.00396729,-0.0271606,0.00457764,0.0505066,0.00610352,0.00457764,0.0328064,-0.000152588
712,-0.000457764,0.00213623,-0.00152588,0.0283813,0.0288391,-0.00869751,0.0151062,0.0244141,-0.0143433
712,0.0396729,-0.0201416,-0.00289917,-0.000915527,0.00930786,-0.0161743,0.0358582,0.0198364,0.00656128
712,0.00640869,0.00411987,-0.010376,-0.0100708,0.0401306,-0.022583,0.0233459,0.00823975,0.00106812
712,0.0160217,0.0157166,0.042572,0.0140381,0.0257874,-0.0201416,0.0312805,-0.0140381,0.0186157
712,0.0234985,0.0396729,0.0765991,0.0244141,0.00152588,-0.0254822,0.0195312,-0.019989,-0.00335693
713,0.0184631,0.0276184,0.0506592,0.0105286,-0.00427246,0.00961304,-0.0164795,-0.000457764,-0.0038147
713,0.0291443,-0.0325012,0.0198364,-0.0205994,-0.00869751,0.0382996,-0.00595093,0.0106812,0.00732422
713,-0.00808716,-0.0492859,0.0241089,0.0326538,-0.00640869,-0.0328064,-0.0175476,-0.00671387,-0.0160217
713,0.00656128,-0.0062561,0.0741577,0.0332642,-0.0184631,0.00427246,-0.0151062,-0.0012207,-0.0137329
713,0.0198364,-0.0178528,0.0527954,0.0813293,0.0273132,0.0062561,0.00747681,-0.00488281,0.0144958
713,0.0102234,0.0106812,0.0636292,0.101624,0.0285339,-0.00534058,-0.0352478,0.0143433,-0.0164795
713,0.0161743,0.0204468,0.0276184,0.133209,0.00671387,0.00183105,-0.038147,-0.00228882,0.015564
713,0.0242615,0.0395203,0.0325012,0.204163,0.0271606,0.0190735,-0.0408936,0.0170898,0.00808716
713,0.0170898,0.0508118,0.0221252,0.0675964,0.0263977,0.0170898,-0.0276184,0.0312805,0.0398254
713,0.0112915,0.0634766,-0.00595093,-0.10498,-0.0466919,-0.030365,-0.0312805,-0.00930786,-0.0115967
714,0.0286865,0.0752258,-0.00274658,-0.130157,0.0187683,0.0163269,-0.0126648,0.0108337,0.00793457
714,0.00213623,0.0382996,-0.0575256,-0.147095,0.0239563,0.0132751,-0.025177,0.0102234,0.0062561
714,-0.00579834,0.0038147,-0.075531,-0.108948,0.0299072,-0.0163269,-0.00564575,0.0247192,0.0393677
714,0.00106812,-0.00167847,-0.0761414,0.0178528,0.020752,0.0196838,-0.0527954,0.0157166,0.0117493
714,0.032196,-0.0350952,-0.0585938,0.0338745,0.0209045,0.0292969,-0.0839233,0.00976562,0.0218201
714,0.03479,-0.0286865,-0.0184631,-0.0387573,0.0497437,-0.0167847,-0.0462341,0.022583,0.0166321
714,0.00274658,0.00671387,0.0268555,0.0117493,0.00350952,-0.0341797,-0.0712585,0.0169373,0.010376
714,0.0256348,0.00366211,0.0289917,-0.0334167,0.0183105,0.00137329,-0.071106,0.0115967,0.0288391
714,0.010376,0.00320435,0.038147,-0.0205994,-0.00289917,-0.00640869,-0.102081,0.059967,0.0102234
714,0.0154114,-0.000457764,0.0396729,0.019989,-0.0178528,0.0125122,-0.0834656,-0.000457764,0.0234985
715,-0.00488281,0.000457764,0.0158691,-0.000762939,-0.00167847,0.00610352,-0.110016,-0.00915527,-0.0183105
715,0.0270081,0.0108337,-0.0260925,0.0297546,-0.00732422,0.0726318,-0.111389,-0.00961304,0.00991821
715,-0.0193787,0.000457764,-0.0740051,0.0257874,-0.0114441,0.0216675,-0.125275,0.025177,0.012207
715,-0.0140381,0.0231934,-0.068512,0.020752,-0.0209045,0.00213623,-0.116577,0.0111389,-0.00762939
715,-0.00198364,0.0154114,-0.0502014,0.00213623,-0.0238037,0.00152588,-0.110016,0.0248718,0.00747681
715,-0.00350952,-0.0115967,-0.0143433,0.00793457,0.00228882,0.00320435,-0.106049,0.0209045,0.0117493
715,-0.00457764,-0.0424194,-0.0125122,0.0332642,-0.0144958,0.0265503,-0.12146,-0.00274658,0.0151062
715,0.0062561,-0.0617981,0.00732422,0.0114441,-0.025177,0.0233459,-0.140839,0.00167847,0.0111389
715,0.00854492,-0.0518799,-0.000610352,0.0254822,-0.00274658,0.027771,-0.117493,0.0146484,-0.0192261
715,-0.0241089,-0.0549316,0.0279236,0.0231934,-0.00411987,0.0289917,-0.137329,0.0157166,-0.00350952
716,0.0230408,-0.0379944,0.00442505,-0.00350952,0.0128174,0.030365,-0.137634,0.00564575,0.0178528
716,-0.0106812,-0.0314331,0.0254822,-0.0288391,-0.00915527,0.00518799,-0.120239,-0.0114441,-0.00839233
716,0.0428772,0.000915527,0.0596619,0.0158691,0.0543213,-0.00762939,-0.0483704,-0.0151062,0.0184631
716,0.0172424,0.0442505,0.0442505,0.0248718,-0.00198364,-0.0408936,-0.0856018,0.0105286,0.00686646
716,0.0331116,0.0831604,0.0450134,0.0621033,0.0309753,-0.0282288,-0.126801,0.0189209,-0.00930786
716,0.0210571,0.0497437,0.00778198,0.0460815,0.0212097,0.00762939,-0.0761414,0.0215149,0.0134277
716,0.00518799,0.0428772,0.00564575,0.0230408,0.0396729,0.00930786,-0.0827026,0.0119019,0.000610352
716,0.00961304,0.0805664,0.0299072,0.0172424,0.0764465,0.0328064,0.00213623,0.0112915,0.00396729
716,0.0273132,0.0643921,0.0178528,-0.0062561,0.123596,0.0320435,0.01297,0.0100708,0.0238037
716,0.0187683,0.059967,0.0160217,-0.027771,0.0796509,0.00488281,-0.00137329,-0.00106812,-0.0120544
717,0.0210571,0.0439453,0.0198364,-0.0238037,-0.0584412,0.0119019,-0.0308228,0.0144958,-0.000762939
717,-0.0141907,0.0297546,0.0285339,0.0144958,-0.103607,0.0465393,0.00473022,0.00518799,0.0180054
717,0.00839233,0.000762939,0.00259399,-0.000457764,-0.0895691,-0.0123596,0.0241089,0.014801,-0.0270081
717,0.0108337,0.00549316,0.0202942,0.0105286,-0.0971985,0.0234985,0.0325012,-0.00396729,0.00854492
717,-0.0154114,0.0135803,0.0120544,0.0180054,-0.0822449,0.0314331,0.027771,-0.019989,-0.00534058
717,-0.00335693,0.0141907,0.0126648,0.014801,-0.0140381,0.0256348,0.06073,-0.00320435,0.00869751
717,0.00595093,-0.00595093,0.0180054,0.000457764,0.00976562,0.0230408,0.038147,-0.0299072,0.0157166
717,-0.0105286,-0.0164795,0.0158691,0.0088501,0.00335693,-0.00427246,0.0689697,-0.00167847,0.0230408
717,-0.0141907,-0.0257874,0.00518799,0.00305176,-0.00259399,0.0367737,0.0454712,0.00137329,-0.0120544
717,-0.00213623,-0.0263977,0.0244141,0.0108337,0.00442505,0.0236511,0.032196,-0.0193787,-0.00350952
718,0.0119019,0.0245667,0.0352478,0.0454712,0.00137329,0.0233459,0.0715637,-0.0205994,0.00427246
718,0.00640869,-0.00564575,0.01297,-0.0137329,0.0244141,0.010376,0.0482178,-0.00778198,-0.015564
718,0.0234985,0.00457764,0.0195312,-0.0256348,-0.0146484,0.0271606,0.057373,0.0152588,0.00930786
718,0.0323486,0.0109863,0.0146484,0.0128174,0.0242615,-0.0167847,0.0624084,0.0108337,0.0109863
718,0.0115967,0.0088501,0.00732422,0.00778198,0.0175476,0.0216675,0.0643921,0.00213623,0.0144958
718,0.00274658,-0.0126648,0.0178528,-0.00411987,0.0180054,0.0318909,0.0743103,-0.00640869,0.0105286
718,-0.000305176,0.0184631,0.0242615,-0.00457764,0.0134277,-0.00137329,0.0648499,-0.00686646,0.00411987
718,-0.00137329,0.0282288,0.0228882,-0.000305176,0.014801,-0.0062561,0.0314331,-0.0201416,-0.0474548
718,0.0143433,0.0456238,0.00823975,-0.0102234,0.0167847,-0.0215149,0.0489807,-0.00442505,0.025177
718,0.0128174,0.00198364,0.0288391,0.00793457,0.0160217,-0.0172424,0.0149536,0.00137329,0.0135803
719,0.00152588,0.0216675,0.020752,-0.00198364,0.0193787,-0.00213623,0.0134277,0.00839233,-0.00778198
719,0.00793457,0.030365,0.0320435,-0.0175476,0.0109863,0.0112915,0.0205994,-0.0201416,0.00946045
719,0.0152588,0.038147,0.0177002,0.0184631,0.0190735,-0.0169373,0.0119019,0.00854492,-0.0167847
719,0.019989,0.0372314,0.00167847,0.0038147,0.00854492,-0.00518799,0.037384,0.00564575,0.0273132
719,0.0175476,0.0267029,0.0227356,0.000457764,0.00335693,0.0198364,0.010376,0.00823975,0.00518799
719,0.0210571,0.0282288,-0.00488281,0.000762939,0.0202942,0.0204468,0.0408936,0.0172424,0.0134277
719,-0.00411987,0.0196838,0.0202942,0.0228882,0.00579834,-0.0154114,0.0154114,-0.0117493,-0.00747681
719,0.00198364,0.0138855,0.0285339,0.0350952,0.012207,-0.00396729,0.0398254,-0.0012207,0.0146484
719,0.0117493,0.0389099,0.0299072,-0.0498962,0.000305176,-0.0108337,0.0196838,0.0343323,0.0149536
719,0.0120544,0.00305176,0.00976562,-0.00778198,0.0325012,0.0260925,0.0137329,0.0276184,0.010376
720,0.000610352,-0.0140381,-0.032196,-0.000457764,0.00411987,-0.00320435,-0.00869751,-0.0105286,0.0163269
720,0.00579834,0.0297546,-0.0189209,-0.00930786,0.022583,0.0216675,0.0390625,0.00152588,0.00198364
720,-0.000152588,-0.00152588,-0.0428772,0.0102234,-0.0205994,0.00152588,0.0204468,0.0117493,0.0238037
720,-0.00167847,0.0338745,-0.0419617,0.0350952,0.00289917,0.00305176,-0.00915527,0.00213623,-0.0134277
720,-0.0175476,0.0413513,-0.0280762,0.0343323,0.00442505,-0.0238037,0.0115967,-0.000152588,-0.00274658
720,0.00747681,0.0283813,-0.0367737,0.0131226,0.00305176,0.0108337,0.0062561,0.0219727,-0.00320435
720,0.00595093,0.0444031,0.0132751,-0.00976562,0.00442505,0.0112915,-0.00305176,0.0296021,0.0239563
720,0.0111389,0.0163269,0.0169373,0.00915527,0.0291443,0.0256348,-0.015564,-0.017395,0.00473022
720,-0.00289917,0.0152588,0.00823975,0.0288391,0.0254822,0.00717163,0.00579834,0.00839233,0.00366211
720,0.00900269,-0.00244141,-0.00778198,-0.0283813,-0.00747681,-0.0158691,0.00213623,0.0131226,0.00793457
721,0.0239563,0.0222778,0.0245667,-0.00152588,0.0257874,0.0158691,0.0230408,0.0509644,-0.0158691
721,0.00946045,0.0241089,0.0149536,-0.0163269,0.0138855,-0.00900269,-0.00442505,0.0233459,0.0413513
721,0.0161743,0.0260925,-0.00534058,0.00717163,0.0112915,0.0270081,0.0038147,0.0193787,0.0183105
721,0.0210571,0.0405884,0.0115967,-0.0260925,0.0189209,0.0337219,-0.0154114,0.0184631,0.0175476
721,0.00152588,0.0509644,0.0119019,0.00762939,0.00854492,-0.0289917,0.00930786,0.00671387,0.00259399
721,0.0349426,0.0549316,0.0364685,-0.00350952,0.0230408,-0.01297,-0.00549316,-0.00823975,-0.00915527
721,-0.00778198,0.014801,0.0117493,0.00610352,0.0131226,-0.00228882,-0.0398254,0.0259399,0.012207
721,0.0297546,0.0178528,0.03479,0.0109863,0.0364685,0.00289917,0.000915527,0.0338745,0.0137329
721,0.0117493,0.0294495,0.0474548,0.0100708,0.00320435,-0.00457764,0.00640869,0.0135803,0.0120544
721,0.0143433,0.0318909,0.045929,0.0132751,0.00244141,0.00305176,0.000610352,0.0186157,0.00793457
722,-0.015564,0.0167847,0.0202942,0.0123596,0.0236511,-0.0109863,-0.0100708,0.010376,0.0154114
722,0.0012207,0.0216675,0.025177,0.00732422,0.00198364,0.00762939,0.0384521,0.00244141,0.0167847
722,0.0143433,0.0311279,0.00762939,0.0100708,0.00579834,-0.0123596,0.00686646,-0.012207,0.00793457
722,0.0132751,0.0231934,0.0338745,0.0352478,0.0100708,0.00366211,0.0189209,0.00869751,0.027771
722,0.00488281,-0.0154114,0.0260925,-0.00671387,-0.00671387,-0.00946045,0.0100708,0.00442505,-0.0228882
722,0.0270081,0.00595093,0.0166321,0.0187683,0.0267029,0.0436401,0.0410461,0.0120544,0.00595093
722,0.0296021,0.0160217,0.0270081,0.0273132,0.0141907,0.0175476,0.014801,0.0350952,-0.00350952
722,0.00198364,0.0119019,0.0195312,-0.00534058,0.0210571,-0.000152588,0.000305176,0.00762939,0.00595093
722,0.0219727,0.014801,0.0427246,0.00686646,0.00549316,0.0178528,0.0221252,0.0228882,-0.0062561
722,0.052948,0.0360107,0.00305176,0.00549316,-0.00762939,0.00228882,0.0184631,0.0296021,0.0216675
723,0.0279236,0.0234985,0.0146484,0.0270081,0.00274658,0.00289917,0.0151062,0.00808716,0.00411987
723,0.037384,0.0238037,0.0219727,0.00930786,0.00549316,-0.0283813,-0.00335693,0.00198364,-0.0201416
723,-0.00717163,0.0213623,0.0106812,-0.00930786,-0.000305176,0.0123596,0.0320435,0.0158691,0.00778198
723,0.0364685,-0.00259399,0.0157166,-0.00106812,0.0259399,0.00137329,0.0308228,0.0244141,0.0050354
723,0.00106812,0.0088501,0.0334167,0.0175476,-0.00228882,0.0219727,0.0196838,0.0265503,0.0125122
723,-0.0102234,0.00579834,0.0102234,0.00274658,0.0216675,0.0268555,0.0479126,-0.0131226,0.00396729
723,0.0248718,-0.00213623,0.0239563,0.0239563,0.00167847,0.0166321,0.0495911,0.00930786,0.0115967
723,0.0189209,0.00442505,0.0248718,0.0134277,0.0167847,0.00549316,0.0224304,0.00289917,0.0134277
723,0.0184631,0.0468445,0.0468445,0.00930786,0.0276184,-0.0204468,0.0305176,0.0172424,-0.0088501
723,0.032196,0.0186157,0.0161743,-0.0180054,-0.0157166,-0.00640869,0.0254822,0.0141907,0.0231934
724,0.0274658,0.00335693,-0.0131226,0.0183105,0.00106812,-0.00869751,0.0416565,-0.00335693,0.00793457
724,0.00976562,0.0317383,-0.0175476,0.0166321,0.0154114,0.00442505,0.0683594,0.0247192,0.0236511
724,-0.00610352,0.0088501,-0.019989,0.00350952,0.043335,0.0100708,0.0424194,-0.022583,0.0183105
724,0.00656128,0.00152588,-0.039978,0.00701904,0.043335,0.0196838,0.0473022,-0.00366211,0.00396729
724,-0.018158,0.0172424,-0.032196,-0.0169373,0.0190735,-0.0138855,0.0248718,0.014801,-0.0164795
724,0.00137329,0.00152588,-0.00747681,-0.0267029,0.00656128,0.0212097,0.0370789,0.0131226,-0.00778198
724,-0.0143433,-0.0167847,-0.0111389,-0.0492859,0.00717163,0.0297546,0.0105286,0.00701904,-0.00762939
724,0.00534058,-0.0123596,0.0299072,-0.0244141,0.0178528,0.014801,0.0354004,0.0180054,-0.00167847
724,-0.0152588,0.000610352,0.0280762,-0.0160217,0.00228882,-0.00976562,0.0128174,-0.000152588,0.0126648
724,0.00915527,0.00518799,0.00900269,0.00427246,0.00854492,-0.0161743,0.0430298,-0.00946045,-0.00778198
725,0.0120544,0.0109863,-0.0183105,0.0631714,0.0224304,-0.00534058,-0.00732422,0.0170898,0.00396729
725,0.0038147,0.0038147,-0.0340271,0.13504,0.00976562,0.00762939,0.017395,-0.00457764,0.0219727
725,0.0328064,0.0100708,-0.00213623,0.166779,-0.00534058,0.0088501,0.00518799,0.000152588,-0.00305176
725,-0.00900269,0.0340271,-0.00793457,0.0991821,0.00808716,0.0540161,-0.0172424,0.00717163,-0.000762939
725,0.00396729,0.0238037,0.0213623,0.107727,0.0349426,0.020752,0.00900269,-0.00198364,0.0224304
725,0.0260925,0.0172424,0.0135803,-0.0143433,0.0215149,0.00335693,-0.00839233,0.00305176,-0.00946045
725,0.0292969,0.0323486,0.00152588,-0.144196,0.00137329,0.0210571,0.00305176,0.0109863,0.00411987
725,0.0215149,-0.0109863,0.0114441,-0.14389,-0.00152588,0.0169373,0.0166321,0.0180054,0.0215149
725,0.0125122,0.0149536,0.035553,-0.0875854,0.00610352,-0.00640869,0.0160217,0.0143433,-0.0123596
725,0.0100708,0.019989,0.0401306,-0.0645447,0.00930786,0.0149536,0.0300598,0.00961304,-0.0244141
726,0.0100708,0.0186157,0.0283813,-0.0596619,0.0320435,0.00244141,-0.0178528,-0.00839233,-0.0177002
726,0.00946045,0.0325012,0.0242615,0.00564575,0.0286865,0.00183105,-0.00686646,0.0131226,-0.000152588
726,0.0289917,0.0131226,-0.00305176,0.0376892,-0.0212097,0.0138855,-0.0494385,-0.00198364,-0.0146484
726,0.0111389,-0.0126648,0.0288391,0.0105286,0.0254822,0.0410461,-0.0590515,0.00854492,0.0158691
726,0.0389099,0.0117493,0.0428772,-0.110779,0.00930786,0.00183105,-0.0164795,0.0204468,-0.000305176
726,0.00289917,0.025177,0.035553,-0.0480652,0.0186157,0.0212097,-0.00900269,-0.00244141,-0.0120544
726,-0.00915527,-0.00320435,0.0125122,-0.0578308,0.00991821,-0.0209045,-0.00701904,-0.01297,-0.00167847
726,0.00488281,0.00946045,0.000762939,-0.0666809,0.0187683,0.0120544,0.0134277,0.0274658,0.0367737
726,0.00366211,0.00335693,-0.0050354,0.00595093,0.0163269,-0.0102234,0.0115967,0.0177002,0.0210571
726,0.0282288,0.0105286,-0.0270081,-0.0405884,0.00167847,0.0138855,0.0340271,0.0154114,0.0183105
727,0.00640869,-0.0134277,-0.0344849,-0.0608826,-0.0108337,0.0149536,0.010376,-0.00915527,0.00900269
727,-0.015564,-0.0195312,0.0521851,0.30365,0.00213623,0.0720215,-0.018158,0.0247192,0.00656128
727,-0.00396729,0.0227356,0.0796509,0.342255,0.0318909,0.0692749,-0.0115967,0.00289917,-0.0183105
727,-0.0248718,0.00106812,0.0424194,0.230408,0.0491333,0.00823975,0.00198364,0.00198364,-0.0112915
727,0.00366211,0.00183105,0.042572,0.0012207,0.0062561,-0.0308228,0.0511169,0.00823975,0.0106812
727,-0.0328064,0.00595093,-0.00473022,-0.0361633,-0.0215149,-0.0724792,0.0465393,0.00442505,-0.014801
727,-0.00183105,0.00579834,-0.0205994,-0.0151062,0.00335693,-0.0193787,0.0605774,0.014801,-0.0198364
727,-0.0157166,-0.0038147,-0.0663757,-0.102692,-0.050354,-0.0212097,-0.00457764,0.010376,0.0163269
727,-0.0141907,-0.00518799,-0.0463867,-0.0708008,-0.0552368,0.00823975,-0.0389099,0.0178528,-0.00198364
727,-0.0238037,0.0128174,-0.0506592,-0.0482178,0.000305176,0.0296021,-0.0772095,0.017395,-0.0128174
728,0.0340271,-0.0106812,-0.0276184,0.085144,0.0692749,0.0613403,-0.0878906,0.0195312,-0.012207
728,0.00427246,-0.00320435,-0.00640869,0.287628,0.0733948,0.078125,-0.103149,0.030365,-0.00564575
728,0,-0.00732422,-0.0273132,0.352631,0.0608826,0.0349426,-0.0372314,0.0119019,-0.0468445
728,0.0212097,-0.0131226,-0.0164795,0.00595093,0.0311279,0.0132751,-0.01297,0.0289917,-0.019989
728,0.0292969,0.0106812,0.00137329,-0.239563,0.0132751,-0.0415039,-0.0183105,-0.0143433,-0.00778198
728,0.0180054,0.0105286,-0.0137329,-0.118713,-0.0300598,-0.0297546,-0.0146484,0.00106812,-0.00442505
728,0.0210571,0.0135803,0.0167847,-0.154114,-0.0733948,-0.0379944,-0.0314331,-0.00244141,-0.00183105
728,0.0273132,-0.00366211,-0.0299072,-0.0587463,-0.0448608,-0.00671387,-0.0378418,0.015564,-0.00411987
728,-0.000762939,-0.0161743,-0.00930786,0.0537109,-0.0308228,0.0273132,-0.04776,0.0125122,0.0157166
728,0.017395,0.0270081,0.00564575,0.130463,-0.0236511,0.00762939,-0.0532532,-0.00228882,0.00961304
729,0.0341797,0.0138855,0.0144958,0.110931,-0.00640869,0.0126648,-0.0769043,0.00808716,-0.00808716
729,0.0114441,0.0195312,0.015564,0.130005,-0.00228882,0.0109863,-0.045929,0.0456238,0.0123596
729,0.0236511,-0.0160217,0.00167847,0.0785828,0.0228882,0.00335693,-0.0398254,-0.0038147,0.0244141
729,0.0416565,-0.0167847,0.00228882,-0.0561523,0.038147,-0.000762939,-0.0646973,0.0120544,-0.00213623
729,0.0364685,-0.0245667,0.00579834,-0.123291,0.0202942,0.0178528,-0.06073,0.010376,0.0158691
729,0.0205994,-0.00549316,0.0311279,-0.0744629,-0.00457764,0.00640869,-0.0694275,0.00305176,-0.00244141
729,0.020752,-0.0102234,0.00411987,0.0466919,0.0401306,0.043335,-0.045929,0.00350952,0.0254822
729,0.0474548,-0.0151062,-0.0111389,0.0338745,0.0267029,0.0300598,-0.0993347,-0.00854492,-0.00366211
729,0.0178528,-0.0288391,-0.00564575,0.00305176,0.0224304,0.01297,-0.0682068,0.0292969,0.00732422
729,-0.0141907,-0.0198364,0.0183105,-0.0242615,-0.00183105,-0.010376,-0.085144,0.00289917,-0.00274658
730,-0.00793457,-0.0262451,0.0245667,0.0514221,0.0219727,0.0100708,-0.0488281,0.01297,0.0300598
730,-0.0341797,-0.0160217,0.0166321,0.0253296,0.000152588,0.00701904,-0.0479126,0.0111389,0.00976562
730,-0.00595093,-0.00823975,0.00488281,0.0257874,-0.00259399,0.00976562,-0.0627136,0.000305176,0.00244141
730,-0.00473022,0.00350952,0.00289917,-0.0138855,0.0193787,-0.00717163,-0.0473022,0.0296021,-0.00137329
730,-0.0163269,-0.00442505,-0.0125122,0.032959,-0.000457764,0.0088501,-0.0488281,0.00823975,0.020752
730,-0.0357056,-0.0158691,0.00808716,0.0410461,-0.00793457,0.00976562,-0.0769043,0.0141907,0.00839233
730,0.022583,-0.0125122,0.00457764,0.000152588,0.0370789,0.0163269,-0.0640869,0.00244141,0.0198364
730,0.0112915,0.00350952,0.01297,0.0465393,0.0158691,0.00427246,-0.0802612,0.0062561,-0.0163269
730,-0.00244141,0.01297,0.00915527,0.188599,0.0233459,0.0210571,-0.0828552,-0.00366211,0.0111389
730,0.0198364,-0.0233459,0.0196838,0.132599,-0.0050354,-0.00457764,-0.0668335,0.0143433,0.0138855
731,0.0112915,-0.0575256,0.0128174,0.0621033,0.0112915,0.00717163,-0.0650024,-0.0250244,0.00564575
731,0.00839233,-0.0297546,-0.0170898,0.0177002,0.0340271,0.0354004,-0.0532532,0.00274658,0.0314331
731,0.0292969,-0.0263977,-0.0154114,-0.216827,0.0195312,0.0428772,-0.0683594,-0.0170898,0.00869751
731,0.0419617,0.019989,0.0210571,-0.325165,0.0259399,-0.0128174,-0.0686646,-0.0111389,0.00259399
731,0.010376,0.00213623,0.00946045,-0.257721,-0.0117493,-0.0102234,-0.0511169,0.0105286,0.0198364
731,-0.00579834,-0.0149536,0.00640869,-0.0926208,0.0144958,0.00717163,-0.0326538,0.018158,0.0360107
731,-0.00793457,-0.0183105,0.0157166,0.0411987,0.0115967,0.0317383,-0.0267029,-0.0184631,0.00595093
731,0.0157166,-0.0210571,0.014801,0.118866,0.00976562,0.0392151,-0.0361633,0.0038147,-0.000305176
731,-0.0190735,-0.0256348,0.00366211,0.0178528,-0.0291443,0.0062561,-0.0109863,-0.00534058,0.00991821
731,0.010376,-0.00671387,0.0350952,0.0836182,-0.0114441,-0.0106812,-0.0566101,-0.00396729,0.0231934
732,0.01297,-0.0062561,0.00350952,0.0726318,-0.00762939,-0.00564575,-0.0566101,-0.0186157,0.0205994
732,0.00976562,-0.0520325,-0.00518799,0.070343,0.0190735,-0.0221252,-0.118561,0.00396729,0.0177002
732,0.0152588,-0.0198364,0.0233459,0.040741,0.0216675,0.014801,-0.0752258,0.0192261,0.018158
732,0.0186157,0.0245667,0.0227356,-0.0112915,-0.0166321,0.017395,-0.0979614,-0.00823975,0.012207
732,0.0239563,0.00701904,-0.0100708,0.015564,0.0164795,0.0198364,-0.1091,-0.0193787,0.0335693
732,0.0354004,0.0460815,-0.00259399,-0.203857,0.0158691,-0.0248718,-0.114746,0.0117493,0.0100708
732,0.0158691,0.0245667,0.014801,-0.350342,0.00701904,0.000457764,-0.131989,0.0163269,0.00534058
732,0.0209045,0.0222778,0.00808716,-0.139771,0.0262451,0.0186157,-0.125427,0.00595093,-0.0050354
732,0.00640869,-0.00457764,0.0312805,-0.127258,0.0613403,0.0440979,-0.157623,0.0177002,0.0428772
732,-0.00762939,0.0222778,-0.00686646,0.108337,0.0282288,0.0483704,-0.162659,-0.000152588,0.00320435
733,-0.00915527,0.00808716,0.0259399,0.162811,0.0344849,0.0265503,-0.135956,-0.00518799,-0.000152588
733,-0.0138855,-0.0320435,0.00732422,0.0428772,0.0216675,0.00549316,-0.109863,0.0102234,0.00579834
733,-0.0250244,-0.0192261,0.0160217,-0.103912,-0.00442505,-0.00640869,-0.105133,0.0134277,0.0205994
733,-0.00701904,-0.0204468,0.0393677,-0.0680542,-0.0267029,-0.0193787,-0.0718689,0.0239563,0.020752
733,0.0170898,-0.0341797,-0.014801,-0.0595093,-0.0614929,-0.0271606,-0.0939941,-0.00610352,-0.00427246
733,0.0204468,-0.0224304,0.00457764,0.0263977,-0.0434875,0.0088501,-0.0805664,-0.0123596,0.0245667
733,-0.0111389,-0.0152588,0.0202942,-0.0131226,0.0120544,0.00640869,-0.0805664,-0.0143433,-0.010376
733,-0.00427246,-0.00411987,0.00793457,-0.0701904,-0.0138855,-0.0192261,-0.0738525,-0.00976562,0.0212097
733,0.0144958,-0.00534058,0.00900269,0.124512,0.0170898,-0.0219727,-0.0817871,0.0140381,-0.00732422
733,-0.00595093,-0.00671387,0.0494385,0.253906,0.0222778,0.0241089,-0.0839233,0.0105286,0.0254822
734,-0.0183105,-0.0253296,0.00396729,0.275269,-0.0280762,-0.0273132,-0.0646973,-0.00900269,-0.00473022
734,-0.000457764,-0.0202942,0.00305176,0.201721,0.017395,0.0419617,-0.0695801,0.0254822,0.0183105
734,0.00244141,-0.0320435,0.0146484,0.0883484,0.01297,0.0474548,-0.109406,-0.0106812,-0.00518799
734,0.0439453,0.0109863,0.0221252,0.0418091,0.0325012,0.0338745,-0.120087,0.00869751,0.00900269
734,0.058136,-0.0416565,0.0236511,0.0978088,0.0410461,0.0346375,-0.114746,0.0111389,0.00366211
734,0.0398254,-0.0187683,0.00854492,0.0582886,0.0289917,-0.0140381,-0.0811768,0.00610352,0.0274658
734,0.0408936,-0.0012207,-0.00335693,-0.0177002,0.0248718,-0.0137329,-0.0810242,0.0131226,-0.0137329
734,-0.000305176,-0.0108337,0.0274658,-0.020752,-0.00823975,-0.0212097,-0.0845337,-0.00946045,0.00289917
734,0.00762939,-0.0106812,0.0158691,-0.0617981,-0.01297,-0.00213623,-0.103302,0.0271606,0.012207
734,0.0469971,0.00442505,0.000915527,-0.0468445,-0.0221252,0.00183105,-0.0942993,0.0234985,-0.00976562
735,0.00518799,0.0183105,0.00274658,-0.0253296,-0.0143433,-0.0131226,-0.0866699,0.0201416,0.0212097
735,0.00198364,0.0263977,-0.00579834,0.0642395,0.00595093,0.00976562,-0.0738525,0.0152588,-0.00900269
735,-0.0267029,0.0656128,-0.00244141,0.0924683,0.0152588,0.000610352,-0.0602722,0.012207,0.00747681
735,-0.0387573,0.00289917,0.0260925,-0.00732422,0.0270081,-0.0195312,-0.0665283,-0.0224304,-0.000610352
735,-0.0160217,0.0390625,0.0444031,-0.165558,0.0512695,0.0134277,-0.0253296,0.0262451,-0.000305176
735,0.00732422,0.0144958,0.00854492,-0.175781,0.0430298,0.0320435,-0.00930786,0.00411987,-0.00152588
735,-0.0135803,0.0209045,0.0202942,-0.221252,-0.00244141,0.00274658,0.00457764,0.0128174,0.00686646
735,0.0102234,0.00793457,0.0119019,-0.19043,0.0125122,-0.00244141,0.0402832,0.0154114,0.0160217
735,0.0184631,0.000915527,-0.0050354,-0.0238037,0.0312805,0.00640869,0.0332642,0.00656128,-0.0151062
735,0.0144958,-0.00732422,0.0296021,0.0740051,-0.0273132,-0.00854492,0.0767517,0.00411987,0.0242615
736,0.00976562,-0.0108337,0.0128174,0.0314331,0.00839233,-0.0187683,0.088501,-0.000915527,-0.000762939
736,-0.00732422,0.00930786,-0.012207,0.0205994,-0.0297546,-0.0137329,0.127258,0.0146484,0.00427246
736,-0.0382996,-0.0296021,-0.0221252,0.0617981,0.00534058,-0.00106812,0.136108,0.00686646,0.0294495
736,-0.00717163,-0.0234985,-0.00289917,0.0776672,-0.035553,0.0125122,0.156097,0.00335693,0.012207
736,0.0050354,-0.0489807,-0.00823975,0.0050354,-0.0117493,-0.00259399,0.187683,0.000762939,-0.0119019
736,0.0205994,-0.0636292,0.00183105,0.065155,0.017395,0.0404358,0.210571,0.032196,0.00427246
736,0.0143433,-0.0334167,0.014801,0.0152588,0.00946045,-0.0164795,0.210419,0.0222778,0.020752
736,0.0297546,-0.0186157,0.0177002,-0.00518799,-0.01297,0.0190735,0.239868,0.0215149,-0.018158
736,0.0120544,-0.0273132,-0.00808716,0.0262451,0.020752,0.0112915,0.256653,0.0242615,0.0161743
736,0.0279236,-0.00701904,0.0364685,0.00473022,-0.00305176,-0.00167847,0.266418,0.0183105,0.0115967
737,0.0245667,-0.00274658,0.0187683,0.0260925,0.0123596,0.00198364,0.286713,-0.0088501,0.0177002
737,0.0778198,0.0292969,0.0234985,0.0062561,0.0279236,-0.000762939,0.283203,0.0111389,0.0419617
737,0.0515747,-0.00640869,0.00900269,0.0198364,0.00686646,0.0062561,0.303955,0.0109863,-0.0105286
737,0.00442505,0.00427246,0.0138855,0.0259399,0.0088501,-0.0221252,0.313263,-0.0115967,0.0296021
737,0.0292969,0.043335,-0.00305176,0.0410461,0.0309753,0.0158691,0.331726,0.000457764,0.0137329
737,0.0300598,0.0160217,0.00244141,0.0549316,0.0149536,0.0265503,0.33432,0.0209045,-0.00488281
737,0.0164795,0.0132751,0.0161743,0.0444031,0.043335,0.0309753,0.347595,0.0164795,0.00488281
737,0.043335,0.0419617,0.0135803,0.00762939,-0.000457764,0.0172424,0.346222,0.000457764,-0.025177
737,0.0172424,0.0149536,-0.00244141,0.0920105,0.00320435,0.0164795,0.333252,-0.000762939,0.0190735
737,0.018158,0.0544739,0.0416565,0.0646973,0.01297,-0.017395,0.354767,-0.00915527,0.0218201
738,0.00961304,0.0584412,0.0239563,0.00869751,0.00991821,0.0291443,0.386047,0.0314331,0.0111389
738,0.0012207,0.059967,0.0117493,-0.0732422,0.0315857,0.00259399,0.349274,0.0102234,0.000915527
738,0.0138855,0.0668335,0.0117493,-0.0714111,0.0137329,0.0306702,0.343781,0.0332642,0.0175476
738,-0.0105286,0.030365,-0.0216675,-0.181274,0.0265503,0.00579834,0.331116,0.0193787,0.00488281
738,-0.0126648,0.0440979,0.00610352,-0.161438,0.0160217,0.0158691,0.359344,0.00717163,0.0210571
738,-0.0088501,0.0437927,0.017395,-0.158997,0.0341797,0.00213623,0.337372,0.00595093,0.0326538
738,-0.0218201,0.00869751,0.01297,-0.335693,-0.0062561,-0.000610352,0.319519,-0.00183105,-0.00656128
738,-0.00991821,0.0369263,0.0193787,-0.341492,0.0305176,0.0306702,0.29007,0.0202942,0.00289917
738,0.0115967,0.0311279,0.0117493,-0.0318909,0.0231934,0.0358582,0.282135,0.014801,0.00366211
738,-0.00778198,0.0140381,0.0140381,0.0975037,0.0456238,0.03479,0.27298,0.030365,0.0120544
739,-0.0152588,0.00961304,-0.00213623,0.335236,0.0457764,0.0325012,0.28183,-0.0169373,0.0221252
739,-0.0112915,0.0315857,-0.00701904,0.36026,-0.0132751,-0.000915527,0.25589,0.0363159,0.0357056
739,-0.0292969,0.0062561,0.00518799,0.27771,0.025177,-0.0157166,0.276947,0.0187683,0.0187683
739,0.0154114,0.0328064,0.00473022,0.287781,-0.0111389,-0.0114441,0.248108,0.0215149,-0.0128174
739,0.0354004,0.0247192,0.0236511,0.155945,-0.0183105,0.00228882,0.231476,0.0164795,0.0102234
739,0.00976562,0.0012207,0.00427246,-0.0228882,-0.0395203,-0.0227356,0.190735,0.0291443,0.0222778
739,0.0436401,0.0367737,0.0274658,-0.0546265,-0.0230408,0.0050354,0.181122,0.0270081,0.0151062
739,0.0202942,0.0236511,0.0088501,-0.0540161,0.0250244,0.0299072,0.177155,0.0138855,0.0315857
739,0.01297,0.0169373,-0.00640869,0.0869751,0.00564575,0.0238037,0.165863,-0.00564575,0.0012207
739,0.0186157,0.00610352,-0.0135803,0.142975,-0.00396729,-0.00915527,0.128784,0.0172424,0.0286865
740,0.0154114,0.0102234,0.0311279,0.020752,-0.00259399,0.00152588,0.131836,0.025177,-0.000305176
740,0.0367737,0.0366211,0.00732422,0.0234985,0.0218201,0.0132751,0.127106,0.00274658,0.0151062
740,0.0340271,0.0263977,-0.0236511,-0.0593567,0.0105286,-0.00259399,0.126038,0.037384,0.0370789
740,0.0038147,0.0593567,0.0108337,-0.0593567,-0.0202942,0.00228882,0.0582886,0.0138855,0.0299072
740,0.0160217,0.0405884,-0.00457764,0.0541687,0.0375366,0.0515747,0.0907898,0.00747681,0.0466919
740,0.0105286,0.0263977,0.0102234,0.0971985,0.0428772,0.0141907,0.0343323,-0.00518799,0.0262451
740,0.0386047,0.0361633,0.00686646,0.078125,0.0167847,0.00900269,0.0666809,-0.0152588,0.0285339
740,0.00259399,0.0276184,0.0111389,0.0187683,0.014801,0.0415039,0.0624084,0.0128174,0.0132751
740,0.0192261,0.0387573,0.0144958,0.00823975,-0.00518799,0.00427246,0.0337219,0.0137329,0.0189209
740,0.00442505,0.0422668,-0.00762939,0.0642395,-0.00213623,0.00961304,0.0152588,0.0152588,0.035553
741,0.0141907,0.0259399,0.00320435,0.058136,0.0262451,0.00518799,-0.00457764,0.00854492,-0.000457764
741,0.00488281,0.0338745,0.0112915,-0.0292969,0.0192261,0.0234985,-0.00839233,-0.0128174,0.0259399
741,0.00961304,0.0152588,-0.0212097,-0.167236,0.0187683,0.0160217,-0.0144958,-0.0152588,0.0357056
741,-0.0158691,0.0296021,-0.0212097,-0.168152,0.0343323,0.0262451,0.0138855,0.0422668,0.0248718
741,-0.0128174,0.03479,0.0231934,-0.102386,0.00274658,0.00656128,0.0204468,-0.00808716,0.0160217
741,0.0334167,0.0210571,0.0141907,-0.0292969,-0.00717163,0.000915527,-0.00869751,-0.00686646,0.0288391
741,0.0128174,0.0227356,0.00961304,0.0965881,0.0401306,0.0140381,-0.0088501,0.000457764,0.0234985
741,0.0111389,0.0228882,0.0415039,0.0483704,-0.0117493,0.0234985,-0.0140381,-0.00320435,0.0372314
741,0.00259399,-0.000610352,-0.00350952,0.0294495,0.0112915,-0.0106812,0.00610352,0.0132751,0.0358582
741,-0.0135803,0.0221252,-0.00198364,-0.0454712,-0.00839233,-0.050354,-0.0102234,0.0186157,0.0398254
742,-0.0222778,0.017395,0.00976562,0.038147,0.00793457,-0.00534058,-0.00427246,-0.0238037,0.00488281
742,0.0038147,0.03479,-0.00152588,0.0437927,0.0123596,-0.00228882,-0.0326538,0.00671387,0.0178528
742,0.0134277,0.0250244,0.00473022,0.0187683,0.03479,0.0410461,-0.000762939,0.0294495,0.0370789
742,-0.00366211,0.0308228,0.0198364,-0.0843811,0.0259399,0.00183105,-0.0334167,0.0228882,0.0305176
742,0.00762939,0.00671387,0.00946045,-0.105743,0.0111389,0.0328064,-0.0231934,0.00839233,0.0247192
742,0.00778198,0.0137329,0.0108337,-0.0611877,0.00579834,0.00991821,-0.019989,-0.0112915,0.0253296
742,-0.00564575,0.00350952,-0.0190735,-0.0320435,-0.00762939,-0.0050354,-0.00579834,0.0260925,-0.017395
742,-0.00701904,0.014801,0.0291443,-0.0276184,-0.0050354,0.0195312,0.00350952,-0.000610352,0.0178528
742,0.00762939,0.0109863,0.00289917,-0.0256348,-0.0332642,0.0219727,-0.0297546,0.00534058,0.0184631
742,0.0183105,-0.00595093,0.0196838,-0.0221252,-0.0143433,0.0175476,-0.0306702,0.0146484,0.0320435
743,0.00946045,0.00106812,-0.00976562,-0.0062561,0.0318909,-0.000152588,-0.0332642,0.00610352,-0.00335693
743,0.00198364,-0.00366211,0.0050354,0.00839233,0.015564,0.0335693,-0.00457764,0.0204468,0.0299072
743,-0.000305176,0.0050354,0.0161743,-0.00198364,0.0440979,0.0131226,-0.0274658,0.00350952,-0.00549316
743,0.0119019,0.012207,0.000152588,-0.00305176,0.045166,0.00198364,-0.0111389,0.0276184,0.035553
743,0.00396729,0.00137329,0.00686646,-0.0239563,0.00640869,-0.010376,-0.0497437,0.00350952,0.00656128
743,0.00442505,-0.00152588,-0.0305176,0.0100708,0.00442505,0.0143433,-0.0151062,-0.00762939,0.0160217
743,0.0144958,-0.0157166,-0.0141907,0.000762939,-0.00289917,0.0227356,-0.0450134,0.0120544,-0.000305176
743,0.00930786,-0.00289917,-0.00869751,0.00686646,0.0144958,0.0112915,-0.032959,0.0112915,0.00106812
743,0.0163269,0.0111389,0.0210571,-0.0189209,0.0294495,0.00640869,-0.0170898,-0.0105286,0.0164795
743,-0.0161743,-0.0183105,-0.00900269,0.000305176,-0.0169373,0.0234985,-0.0369263,-0.00350952,0.0305176
744,0.0296021,0.00427246,0.0062561,0.0126648,-0.00396729,0.0361633,-0.0312805,0.0192261,0.0114441
744,-0.000457764,-0.00991821,-0.0126648,0.0195312,-0.025177,0.00198364,-0.0189209,-0.0137329,0.0395203
744,0.0088501,-0.0201416,-0.0038147,0.0367737,0.0367737,0.0218201,-0.0311279,0.0163269,0.0152588
744,-0.00534058,-0.00335693,0.0114441,0.0172424,0.00915527,-0.00778198,-0.0389099,-0.0106812,0.0245667
744,0.00610352,0.000152588,0.0166321,0.0367737,0.00137329,-0.0187683,-0.052948,-0.00320435,0
744,0.0215149,0.0123596,0.0238037,0.0257874,0.0105286,0.0143433,-0.0335693,0.0106812,0.0172424
744,0.0288391,-0.0166321,0.0088501,0.00534058,0.0299072,0.0169373,-0.0570679,0.0209045,0.0149536
744,-0.00152588,-0.00473022,-0.0126648,0.0186157,0.0183105,-0.0012207,-0.0180054,0.00839233,-0.00762939
744,-0.00106812,0.00305176,-0.0175476,0.0279236,0.00823975,0.015564,-0.0367737,-0.00259399,0.0268555
744,0.0250244,0.00808716,0.0120544,0.0628662,0.0460815,0.0367737,-0.0338745,0.0276184,0.00534058
745,0.00228882,-0.0184631,0.0102234,0.0675964,0.0344849,-0.00656128,-0.0422668,0.0212097,0.0038147
745,0.00930786,0.000457764,0.0297546,0.0343323,0.0193787,0.0160217,0.00228882,0.0299072,0.0193787
745,0.0119019,0.00595093,0.0395203,0.0169373,0.0222778,-0.00350952,-0.0434875,-0.00152588,0.03479
745,0.0128174,-0.00473022,0.0180054,-0.0367737,0.0170898,0.0334167,-0.0262451,0.0187683,-0.0239563
745,0.019989,-0.0102234,-0.00930786,-0.0202942,-0.0349426,0.00762939,-0.0038147,0.0205994,-0.000610352
745,0.00183105,-0.00991821,0.0163269,-0.0280762,0.0302124,0.00579834,-0.0340271,0.0222778,-0.0186157
745,0.00976562,-0.00289917,0.00991821,0.0112915,0.00396729,-0.00854492,-0.0354004,0.0114441,-0.0100708
745,0.0218201,-0.00869751,-0.00839233,0.0263977,0.0245667,-0.0154114,-0.0108337,0.00518799,0.0108337
745,0.00167847,0.0146484,-0.00442505,0.00518799,-0.0138855,-0.0131226,-0.0231934,-0.00335693,0.0195312
745,0.0190735,0.00320435,-0.00427246,0.00183105,0.0354004,0.0177002,-0.032959,-0.0192261,0.00442505
746,0.0210571,-0.00152588,0.0126648,0.0288391,0.015564,-0.0167847,-0.0126648,-0.00473022,0.00656128
746,0.0117493,-0.0177002,-0.0151062,0.0276184,-0.0308228,-0.0579834,-0.0205994,0.012207,-0.012207
746,0.0152588,0.00335693,-0.00335693,0.0109863,-0.00961304,0.00717163,0.0268555,0.0395203,-0.0151062
746,0.0323486,-0.0370789,0.0300598,0.0498962,0.00839233,0.0695801,0.0123596,-0.00259399,0.0227356
746,0.0050354,0.0198364,-0.000915527,0.00198364,-0.00808716,0.0242615,-0.00411987,-0.0119019,0.0311279
746,0.0172424,-0.00701904,0.0170898,0.020752,0.0492859,0.0196838,-0.00488281,-0.00656128,-0.00717163
746,0.0274658,0.00976562,0.0367737,0.0694275,0.0679016,0.0253296,0.00335693,0.0172424,0.0205994
746,-0.00289917,-0.00823975,0.0259399,0.0538635,0.0471497,0.00442505,0.00228882,-0.00289917,0.00717163
746,0.025177,0.0050354,0.0285339,-0.00137329,0.0210571,-0.0212097,0.0485229,0.0221252,0.0398254
746,0.0106812,0.00701904,0.00610352,-0.0143433,-0.0636292,0.0396729,0.0382996,-0.00839233,0.0151062
747,-0.0105286,0.00686646,0.00152588,0.0215149,-0.0190735,-0.0012207,-0.00396729,0.0187683,0.0421143
747,-0.00244141,0.00640869,0.0152588,0.0106812,-0.0338745,0.0502014,0.0216675,0.0294495,0.0262451
747,0.0428772,0.0126648,0.0314331,0.00213623,-0.0523376,0.128174,0.0180054,0.0396729,-0.00595093
747,0.0198364,-0.0154114,-0.0141907,0.00640869,-0.0260925,0.0617981,-0.0314331,-0.0154114,0.00930786
747,0.0213623,0.0126648,0,-0.018158,0.00427246,0.022583,-0.0483704,0.00289917,-0.0294495
747,0.0215149,-0.00213623,0.00228882,-0.00106812,0.00473022,0.0418091,-0.0167847,0.0196838,0.0187683
747,-0.00198364,-0.00411987,-0.0254822,-0.0115967,0.019989,-0.0262451,-0.0131226,0.00747681,0.00854492
747,0.0241089,0.0242615,-0.00411987,0.00762939,0.0216675,-0.0408936,0.0212097,0.0299072,-0.027771
747,0.0112915,-0.0117493,0.0088501,0.00335693,0.0144958,-0.0210571,0.00976562,0.00671387,0.00915527
747,0.0198364,0.0050354,0.0343323,-0.0106812,-0.017395,0.0158691,0.0616455,0.00717163,0.00137329
748,0.0134277,-0.0140381,0.0038147,0.00366211,0.0186157,0.0117493,0.108948,0.0106812,0.0332642
748,0.00869751,-0.00701904,0.0100708,0.0370789,0,0.00350952,0.102539,-0.0144958,0.00106812
748,0.0341797,-0.000610352,-0.0119019,-0.0424194,0.000457764,-0.00778198,0.121307,-0.00183105,0.00198364
748,0.00518799,0.00457764,0.0297546,-0.00762939,0.0306702,0.0216675,0.163116,-0.000762939,0.0109863
748,0.0187683,0.0151062,0.0126648,0.0422668,0.0308228,0.00488281,0.164642,-0.00366211,0.00564575
748,0.00106812,0.0158691,0.0325012,0.0521851,0.0192261,-0.00106812,0.182953,-0.00991821,0.0134277
748,0.00930786,0.00457764,0.022583,0.0204468,0.0183105,0.0088501,0.221863,-0.00244141,0.00976562
748,0.00808716,0.00793457,0.0369263,-0.0062561,0.00595093,0.0314331,0.219879,0.0158691,0.0105286
748,0.0245667,0.022583,-0.00320435,-0.105286,0.00686646,0.0479126,0.267792,0.0302124,0.00320435
748,0.00305176,0.0387573,0.018158,-0.0476074,0.00823975,-0.00244141,0.290222,0.0137329,0.0210571
749,0.0170898,0.00701904,0.0154114,0.144501,0.0222778,0.00518799,0.324707,0.00778198,0.0108337
749,0.012207,0.00213623,0.0331116,0.118103,0.00656128,-0.0314331,0.387115,-0.000915527,0.00671387
749,-0.00411987,0.0170898,0.0382996,0.0590515,0.0386047,-0.0471497,0.402832,0.00717163,0.00793457
749,0.0132751,0.00442505,0.0488281,0.0614929,0.0563049,0.00198364,0.359497,0.0106812,0.0247192
749,0.0198364,-0.0132751,0.0198364,0.0175476,0.03479,0.00549316,0.258789,0.0100708,-0.00228882
749,-0.00152588,0.0233459,0.0245667,0.0241089,0.00778198,0.0259399,0.216827,0.0038147,-0.000915527
749,0.00289917,0.00335693,-0.0154114,0.00396729,-0.0288391,0.0201416,0.117645,0.00930786,0.0157166
749,0.0172424,-0.00534058,-0.0204468,0.0268555,-0.0189209,0.0125122,0.0830078,0.0141907,0.0308228
749,0.0012207,0.0184631,0.000305176,0.00244141,-0.0289917,-0.0140381,0.00869751,0.00778198,0.0177002
749,0.0141907,0.0436401,0.0193787,0.0187683,-0.0163269,-0.0227356,-0.0624084,0.0447083,0.000305176
750,0.0062561,0.0279236,0.00411987,-0.010376,-0.0354004,-0.0213623,-0.0993347,0.000915527,0.00747681
750,0.0227356,0.0132751,0.0302124,-0.0213623,0.00595093,-0.00762939,-0.134735,0.0314331,-0.00488281
750,0.0105286,0.00579834,0.0314331,-0.0566101,0.0305176,0.0209045,-0.187531,0.00289917,0.0175476
750,-0.00228882,0.00656128,0.0559998,-0.0343323,0.0234985,0.0801086,-0.22644,0.00793457,-0.00457764
750,0.0157166,-0.000305176,0.0146484,-0.00442505,0.0309753,0.00762939,-0.260925,0.00473022,-0.0146484
750,0.0115967,0.01297,-0.0180054,0.0219727,0.00717163,0.0180054,-0.264587,0.0143433,0.0180054
750,0.00656128,0.0050354,-0.0436401,-0.00396729,-0.00411987,-0.00457764,-0.308533,0.0126648,0.00473022
750,0.0283813,0.00808716,-0.0437927,0.115662,0.00930786,0.0154114,-0.33432,0.0140381,0.0119019
750,0.0050354,0.000457764,-0.0349426,0.0996399,0.0012207,0.0291443,-0.316162,0.0196838,0.0163269
750,0.0088501,0.00549316,-0.018158,0.0354004,0.00610352,0.0436401,-0.332947,-0.0204468,-0.0195312
751,0.0186157,0.0100708,0.0375366,-0.0248718,0.0260925,0.0524902,-0.313416,0.0186157,0.0257874
751,0.0299072,-0.00762939,0.0128174,-0.00595093,0.000305176,-0.0178528,-0.314178,0.0166321,0.00854492
751,0.0488281,0.00396729,0.0242615,0.0619507,0.00213623,-0.0164795,-0.29892,0.0189209,0.00778198
751,-0.00762939,0.00534058,0.00289917,0.0616455,-0.0151062,-0.00411987,-0.295563,0.0135803,-0.00473022
751,0.00976562,0.0169373,0.00976562,0.0100708,-0.0140381,0.0247192,-0.294037,0.01297,0.0239563
751,-0.00106812,0.0144958,0.0219727,-0.00289917,0.0105286,-0.0288391,-0.302124,0.0305176,0.00137329
751,0.0160217,0.0115967,0.0204468,0.0408936,0.0137329,-0.0422668,-0.270233,0.0193787,-0.0204468
751,0.0242615,0.0132751,-0.00579834,0.00350952,0.00106812,-0.0289917,-0.265045,-0.00518799,0.0279236
751,0.00854492,0.0335693,0.00534058,0.0326538,0.0448608,0.00930786,-0.253601,0.00900269,-0.0117493
751,-0.0102234,0.00701904,0.0186157,0.0227356,0.0213623,-0.0267029,-0.248718,-0.0170898,0.0088501
752,-0.00595093,0.0212097,0.0338745,0.0720215,0.0436401,-0.00427246,-0.276337,-0.032196,-0.0221252
752,-0.0274658,0.00976562,0.0692749,0.154877,0.00869751,0.0138855,-0.319672,-0.0161743,-0.00350952
752,-0.00915527,0.0170898,0.0196838,0.0263977,-0.0364685,0.00976562,-0.297089,0.010376,-0.00335693
752,-0.00289917,0.0276184,0.0491333,-0.0579834,-0.025177,0.0692749,-0.300903,0.0149536,0.0143433
752,-0.00793457,0.0219727,0.0447083,-0.167847,0.00610352,0.0582886,-0.314484,0.00732422,0.00488281
752,-0.00473022,0.00869751,0.0131226,-0.159607,0.000152588,0.106201,-0.285034,0.0219727,-0.000457764
752,0.00518799,0.019989,0.0440979,-0.000305176,0.00411987,0.0558472,-0.327911,0.0105286,-0.0108337
752,0.00366211,0.00915527,0.0137329,0.0575256,0.020752,0.0698853,-0.299835,0.00289917,-0.0233459
752,0.00396729,-0.0238037,-0.0161743,-0.0186157,-0.0169373,0.0242615,-0.275574,0.0154114,0.0195312
752,0.0202942,-0.00411987,-0.0193787,0.0177002,0.00778198,0.0102234,-0.25116,-0.00213623,0.0350952
753,0.0111389,-0.00579834,-0.00686646,-0.000152588,-0.00732422,0.00457764,-0.215149,-0.00823975,0.0382996
753,0.00305176,0.0209045,-0.0106812,0.035553,-0.00717163,-0.0315857,-0.199432,0.0279236,0.00808716
753,0.0112915,0.0012207,0.0141907,0.00732422,-0.000457764,-0.0120544,-0.199127,0.0149536,-0.017395
753,0.0143433,0.0280762,0.000762939,0.0233459,0.0318909,-0.010376,-0.132294,0.0317383,-0.0108337
753,0.0424194,0.0271606,0.00610352,0.0382996,0.0387573,-0.000305176,-0.138245,0.0308228,0.0175476
753,0.0450134,0.0102234,-0.0105286,0.00518799,0.00823975,0.0213623,-0.0991821,0.00289917,0.00350952
753,-0.0146484,0.0367737,-0.0196838,-0.0106812,0.00915527,0.00411987,-0.0704956,0.00488281,0.0202942
753,0.00640869,-0.00946045,-0.0146484,-0.0376892,0.0335693,0.0088501,-0.0643921,0.0312805,0.0209045
753,-0.00335693,0.0144958,-0.0193787,-0.0111389,0.0169373,0.0146484,-0.0427246,-0.00808716,0.0370789
753,-0.0137329,-0.0108337,-0.0109863,-0.0518799,0.00198364,-0.0332642,-0.0212097,0.0213623,-0.0120544
754,0.00213623,0.0167847,0.0230408,-0.0447083,0.00991821,0.0241089,-0.0100708,0.00350952,0.00717163
754,-0.00823975,0.0250244,-0.0114441,-0.0619507,-0.00411987,0.0750732,-0.000305176,0.0242615,0.0239563
754,0.0506592,0.0256348,-0.00274658,-0.0205994,-0.00640869,0.0309753,0.0205994,0.0132751,0.00457764
754,0.00610352,0.0105286,0.0189209,0.0714111,-0.00595093,0.0357056,-0.00701904,0.0141907,0.0195312
754,0.020752,0.0169373,0.00778198,0.110474,0.022583,0.0154114,0.0509644,0.0296021,0.0280762
754,0.0128174,0.00534058,0.0144958,0.065918,0.0120544,0.00900269,0.0466919,0.0201416,0.000915527
754,0.0177002,0.0158691,0.0117493,-0.00335693,0.0222778,-0.0105286,0.109253,0.00442505,0.00793457
754,0.0178528,0.0196838,0.0135803,0.0712585,0.0306702,0.0294495,0.108948,0.0233459,0.0111389
754,0.00579834,0.00549316,0.0109863,0.014801,0.0314331,0.00610352,0.126648,0.01297,0.010376
754,-0.00564575,0.0141907,0.0344849,-0.052948,0.0334167,-0.0170898,0.159302,0.0198364,0.0195312
755,0.0234985,0.0111389,0,-0.0590515,0.0160217,0.0209045,0.159302,0.0335693,0.0166321
755,0.00869751,0.027771,0.0177002,-0.0688171,-0.00274658,0.00656128,0.192261,0.025177,0.0195312
755,-0.0140381,0.0202942,-0.00335693,-0.010376,0.0402832,-0.0189209,0.196838,0.0180054,0.0216675
755,-0.0109863,0.0326538,0.000762939,-0.00289917,-0.00289917,0.0285339,0.248566,0.00656128,0.00213623
755,-0.0157166,0.00473022,-0.0183105,0.0556946,0.0140381,-0.00411987,0.239563,-0.00778198,0.0114441
755,0.014801,0.0088501,0.0160217,0.0300598,0.00930786,-0.00106812,0.23941,0.00396729,0.0219727
755,0.0177002,-0.00137329,-0.00671387,0.0437927,-0.00274658,0.0234985,0.23407,0.0038147,0.00305176
755,0.0320435,-0.00946045,0.0209045,0.0114441,0.000610352,-0.00167847,0.229797,0.0219727,0.0125122
755,0.022583,0.0398254,0.0123596,-0.0601196,0.0245667,0.0120544,0.193176,0.0238037,0.0186157
755,0.019989,0.0375366,0.00274658,-0.0845337,0.0146484,-0.015564,0.22644,-0.0158691,-0.0192261
756,0.0370789,0.0816345,0.0114441,0.00778198,-0.0109863,0.00457764,0.180206,-0.00259399,-0.0100708
756,0.020752,0.0418091,0.0134277,0.0619507,0.00671387,-0.00549316,0.182343,0.00518799,0.0108337
756,-0.00213623,0.0178528,0.0105286,0.0210571,-0.00305176,0.0341797,0.13382,-0.00686646,0.0157166
756,0.00518799,0.0196838,0.000305176,0.0262451,-0.0253296,-0.00701904,0.142517,-0.0108337,-0.0167847
756,0.00228882,0.0428772,0.00198364,0.0640869,0.000762939,-0.0205994,0.123596,0.0131226,-0.0120544
756,0.00915527,0.00778198,-0.00167847,0.0358582,-0.000305176,0.0177002,0.102844,0.00427246,-0.00976562
756,-0.0457764,-0.0585938,0.0128174,0.0154114,-0.0175476,0.0100708,0.0770569,0.0115967,0.00167847
756,-0.0376892,-0.0869751,-0.0125122,0.0146484,0.022583,0.0332642,0.0668335,-0.00488281,0.00259399
756,0.0170898,-0.0714111,0.0267029,0.0140381,0.0227356,0.00137329,0.0790405,0.00183105,0.0311279
756,0.0297546,-0.0125122,0.0517273,0.0215149,0.0105286,0.00274658,0.0280762,-0.00686646,0.0231934
757,0.0669861,0.0260925,0.0360107,0.00427246,0.0178528,-0.0219727,0.0518799,-0.00549316,-0.0151062
757,0.0273132,0.0338745,0.0476074,0.000915527,0.0187683,0.0100708,0.0602722,0.0216675,-0.00198364
757,0.0480652,0.0561523,0.039978,-0.0143433,0.0195312,0.000457764,0.0213623,0.000762939,0.00427246
757,0.00610352,0.0245667,0.0273132,0.0050354,0.0410461,0.0357056,0.00823975,0.00564575,0.0286865
757,-0.00457764,0.040741,-0.0167847,0.0486755,0.0352478,0.0222778,0.00320435,-0.00946045,0.00564575
757,0.0141907,0.0445557,-0.020752,0.0236511,0.00961304,0.0306702,-0.0131226,0.0149536,0.0151062
757,-0.0157166,0.00915527,-0.0160217,0.0108337,0.0498962,0.0183105,-0.0114441,-0.000610352,-0.0143433
757,0.00289917,0.0216675,-0.0172424,0.0088501,0.0466919,0.00213623,-0.0270081,0.0157166,-0.0151062
757,0.0050354,0.018158,0.00274658,-0.00732422,-0.00335693,-0.0190735,-0.0509644,0.0167847,-0.00564575
757,0.0135803,0.0810242,0.0393677,0.0250244,-0.0256348,-0.00671387,-0.0108337,0.0038147,0.0193787
758,0.00640869,0.0323486,0.0592041,-0.0132751,0.0386047,-0.0117493,-0.0297546,0.0253296,0.0164795
758,0.0164795,-0.00823975,0.0605774,-0.0196838,0.0318909,-0.00640869,-0.0108337,0.0283813,0.039978
758,-0.0274658,-0.0309753,0.0587463,0.0209045,0.0154114,-0.00671387,-0.052948,0.0012207,0.00564575
758,-0.0216675,-0.0306702,0.0428772,0.0300598,-0.00595093,-0.00411987,-0.0431824,-0.00244141,-0.0119019
758,0.0169373,-0.0141907,0.0215149,0.000152588,0.0447083,-0.00366211,-0.065155,0.0111389,0.0233459
758,0.027771,-0.0239563,-0.00411987,0.0111389,0.037384,0.0164795,-0.045166,0.01297,-0.0112915
758,0.0469971,0.0358582,0.0268555,-0.0134277,0.0646973,0.00854492,-0.0318909,0.0160217,0.0152588
758,0.0257874,0.0544739,-0.0138855,-0.0273132,0.0326538,-0.00106812,-0.0593567,-0.0254822,-0.00686646
758,-0.0178528,0.0250244,-0.0796509,0.0292969,0.0282288,0.0340271,-0.0701904,-0.0160217,0.0120544
758,-0.00305176,0.00900269,-0.0306702,0.0157166,-0.0506592,0.00717163,-0.0886536,0.0213623,0.000915527
759,-0.0328064,-0.0366211,-0.0166321,0.0267029,-0.0601196,0.0299072,-0.0886536,0.0109863,0.0119019
759,0.0262451,-0.039978,0.0213623,0.0798035,-0.0317383,0.00946045,-0.068512,0.00350952,0.0135803
759,-0.00320435,-0.0801086,0.0439453,0.0447083,-0.0183105,-0.00732422,-0.0794983,0.032196,0.0123596
759,-0.0177002,-0.0796509,0.043335,-0.00610352,0.0233459,-0.00167847,-0.0918579,0.00595093,-0.00259399
759,-0.0132751,-0.0654602,0.0610352,0.00961304,0.0216675,0.0256348,-0.0892639,0.0195312,-0.0221252
759,-0.00808716,-0.0289917,0.0540161,0.0500488,-0.0196838,0.0123596,-0.111237,0.0265503,0.0158691
759,0.0178528,-0.00579834,0.0369263,0.00762939,0.00259399,-0.00534058,-0.06073,0.0050354,0.000457764
759,0.0515747,0.0286865,0.0488281,0.0384521,0.0131226,-0.0088501,-0.109558,0.00137329,0.0105286
759,0.050354,0.0134277,0.000762939,-0.00747681,0.0268555,-0.00167847,-0.0689697,0.0283813,-0.00869751
759,0.0486755,0.0410461,-0.0442505,-0.019989,0.020752,-0.00701904,-0.0509644,0.0227356,0.00274658
760,0.0427246,0.0506592,-0.043335,-0.00991821,-0.0205994,-0.00366211,-0.0814819,0.0231934,0.0233459
760,0.0559998,0.063324,-0.0602722,0.00808716,0.0331116,-0.000762939,-0.0996399,0.0224304,0.0631714
760,0.0375366,0.0317383,-0.0563049,-0.00701904,-0.0117493,-0.0227356,-0.168915,-0.00686646,0.0183105
760,0.032196,0.038147,-0.00640869,-0.042572,0.0254822,-0.00427246,-0.210266,0.0158691,0.0296021
760,0.0172424,-0.00259399,-0.0473022,-0.0180054,0.0723267,0.0186157,-0.294342,-0.0062561,0.00457764
760,0.0294495,-0.0169373,-0.0473022,0.0141907,0.032959,0.0805664,-0.281219,0.0233459,0.0154114
760,-0.0141907,-0.000457764,-0.0340271,0.0411987,-0.00656128,0.0480652,-0.270233,0.000762939,0.0248718
760,0.0213623,0.0666809,-0.0265503,0.0630188,-0.000610352,-0.00137329,-0.258942,0.00488281,0.0106812
760,0.0274658,0.0765991,0.000610352,-0.0550842,0.0157166,-0.052948,-0.232391,0.0245667,0.0242615
760,0.00671387,0.0593567,-0.00183105,-0.09552,0.0334167,-0.0190735,-0.221863,0.0306702,0.0247192
761,0.0190735,0.0332642,-0.00442505,-0.115662,0.0602722,0.0448608,-0.197449,0.0480652,0.0111389
761,-0.00106812,-0.0228882,0.0209045,-0.0479126,0.0457764,0.0413513,-0.19043,0.025177,0.0105286
761,0.0112915,0.00305176,0.032959,0.0906372,0.00473022,-0.00701904,-0.160828,0.0282288,0.00656128
761,0.00350952,-0.019989,0.0312805,0.13092,-0.0471497,0.00442505,-0.119019,0.00671387,-0.0305176
761,0.0245667,0.019989,0.0428772,0.0837708,-0.0183105,0.0234985,-0.10376,0.00595093,0.0149536
761,-0.00350952,0.0198364,0.0598145,0.00656128,-0.00823975,0.00106812,-0.106049,-0.00762939,-0.0117493
761,0.00549316,0.0520325,0.0926208,-0.0257874,0.0050354,-0.015564,-0.0746155,0.00701904,-0.0119019
761,0.0050354,0.0691223,0.0474548,-0.00946045,0.000457764,0.0358582,-0.0971985,-0.0189209,0.0259399
761,0.00778198,0.0416565,0.0466919,-0.0128174,0.0471497,0.0320435,-0.0956726,0.0164795,-0.00442505
761,0.00671387,0.0453186,0.0294495,0.135345,0.0384521,0.0177002,-0.0965881,-0.0175476,0.000610352
762,0.000610352,0.0430298,0.00167847,0.189056,0.0494385,0.0723267,-0.0746155,0.0154114,0.00274658
762,0.00549316,0.0282288,-0.0479126,0.0950623,-0.0294495,0.0512695,-0.0578308,-0.0109863,-0.00198364
762,0.00457764,0.0674438,-0.0312805,-0.0126648,-0.00427246,0.0221252,-0.0286865,-0.00671387,0.00289917
762,0.000762939,0.0460815,-0.0753784,-0.148926,-0.0361633,0.00640869,0.0538635,0.0219727,-0.0161743
762,0.00762939,0.0740051,-0.0590515,-0.223694,-0.0285339,-0.0648499,0.0776672,-0.00442505,0.0184631
762,0.00762939,0.0468445,-0.0340271,-0.0753784,-0.000915527,-0.0431824,0.128326,0.0115967,-0.00473022
762,0.00259399,0.0318909,-0.062561,-0.0100708,0.00778198,-0.0361633,0.155334,0.00839233,0.0198364
762,-0.00640869,0.0186157,-0.0186157,0.0219727,0.0192261,-0.00793457,0.181732,-0.00396729,0.0520325
762,-0.0360107,0.0442505,0.0126648,0.0572205,-0.0253296,-0.0587463,0.223846,-0.0120544,0.01297
762,0.0236511,0.0521851,0.0309753,0.0842285,-0.0521851,-0.0617981,0.236816,0.012207,0.0337219
763,0.00396729,0.0483704,0.0752258,0.100403,0.00198364,-0.0524902,0.267487,0.0187683,0.00732422
763,0.0271606,0.0689697,0.0488281,0.0189209,0.000915527,-0.0318909,0.271606,0.03479,0.0312805
763,0.000305176,0.0471497,0.0692749,0.00244141,-0.0167847,0.0260925,0.247955,0.0108337,-0.0222778
763,-0.0311279,0.0306702,0.0187683,0.0152588,-0.00518799,0.0247192,0.272064,0.0012207,0.00427246
763,-0.0149536,0.0602722,0.0212097,0.00671387,0.0102234,-0.000610352,0.296783,0.00701904,-0.0204468
763,-0.00137329,0.0563049,0.0305176,-0.00213623,0.0296021,-0.0236511,0.328674,0.0463867,0.012207
763,-0.00610352,0.0178528,0.00808716,0.00686646,0.0050354,-0.00289917,0.345764,0.0180054,-0.0108337
763,-0.00289917,0.0138855,-0.0292969,0.0291443,0.0132751,-0.015564,0.312958,0.0343323,-0.0187683
763,-0.0444031,-0.0337219,-0.0314331,0.0263977,0.0502014,0.0473022,0.279083,0.0344849,0.0140381
763,-0.030365,-0.0653076,-0.0177002,-0.0349426,0.0350952,0.129242,0.225677,0.0119019,-0.0109863
764,-0.0166321,-0.0540161,-0.0296021,0.0180054,0.0465393,0.123596,0.159454,0.018158,-0.00137329
764,-0.000915527,-0.0737,-0.00717163,0.0660706,0.0701904,0.0964355,0.157776,0.0213623,0.035553
764,-0.00137329,-0.106049,-0.0172424,0.0283813,0.040741,-0.0137329,0.188751,-0.0158691,0.0190735
764,0.0270081,-0.0595093,-0.00289917,-0.0125122,0.00106812,-0.00564575,0.209503,-0.00534058,-0.00549316
764,0.0146484,-0.0666809,-0.00259399,0.0212097,-0.045929,0.0531006,0.174408,0.0105286,0.0115967
764,0.01297,-0.0935364,0.0186157,0.035553,-0.0387573,-0.0157166,0.175476,-0.0102234,0.00930786
764,0.0112915,-0.0831604,-0.0164795,0.0228882,0.00488281,-0.0349426,0.160522,-0.00366211,0.0152588
764,0.0227356,-0.0740051,-0.00793457,-0.0389099,-0.0137329,-0.0578308,0.153503,-0.00793457,0.0172424
764,0.0166321,-0.0236511,0.071106,-0.0457764,0.0106812,-0.052948,0.109711,0.0125122,0.0318909
764,0.0138855,-0.0241089,0.0628662,-0.0541687,-0.0320435,-0.00198364,0.0917053,0.00152588,0.0126648
765,0.00183105,-0.0161743,0.0636292,-0.058136,-0.00137329,-0.0395203,0.0759888,0.0253296,0.0111389
765,0.0317383,-0.0404358,0.0361633,0.00717163,-0.0294495,0,0.0186157,0.0172424,0.0245667
765,0.0151062,-0.0282288,0.0392151,0.0782776,-0.0596619,0.015564,-0.00793457,-0.0161743,0.00747681
765,-0.00732422,0.015564,0.0424194,0.0379944,0.0398254,-0.00289917,-0.0643921,0.0238037,0.01297
765,0.000457764,0.0190735,0.0256348,-0.018158,0.0422668,0.00854492,-0.0418091,0.00915527,-0.00579834
765,-0.018158,0.0241089,-0.0178528,-0.0428772,0.0361633,-0.0106812,-0.087738,0.0102234,0.0105286
765,-0.00488281,0.0505066,-0.00640869,-0.0888062,0.0627136,0.0108337,-0.145874,-0.0102234,0.0151062
765,-0.00259399,0.015564,-0.0167847,-0.143585,0.0450134,0.0379944,-0.166931,-0.0131226,-0.000152588
765,-0.0050354,0.037384,-0.0363159,-0.134735,0.00152588,0.0012207,-0.168915,-0.0201416,-0.0038147
765,0.00640869,0.00869751,0.0111389,-0.0848389,-0.0144958,0.128174,-0.180817,-0.0111389,-0.0164795
766,0.0253296,0.0413513,-0.0151062,0.15213,0.0222778,0.0898743,-0.225677,0.00595093,-0.0563049
766,-0.039978,-0.0323486,-0.0509644,0.149689,-0.0326538,0.0735474,-0.25589,-0.0285339,-0.0473022
766,-0.0375366,-0.078125,-0.0178528,0.0999451,-0.0349426,0.0416565,-0.244751,-0.0390625,-0.0187683
766,0.00808716,-0.0483704,0.00152588,0.0946045,-0.018158,0.0328064,-0.250854,0.0189209,-0.0354004
766,0.0421143,-0.0788879,-0.00473022,0.0552368,0.0216675,-0.0062561,-0.24353,0.00900269,-0.0291443
766,0.0332642,-0.0827026,0.00488281,0.0547791,0.0135803,-0.0224304,-0.217743,0.000610352,-0.0292969
766,0.0408936,-0.0683594,-0.00289917,0.0248718,-0.0286865,-0.019989,-0.182648,-0.0195312,-0.00900269
766,0.0369263,-0.0387573,-0.030365,0.00228882,-0.0144958,-0.0427246,-0.183258,0,0.00137329
766,0.0431824,-0.0143433,0.0227356,0.00473022,0.00137329,-0.0308228,-0.171814,-0.0163269,0.0137329
766,0.0270081,-0.0151062,0.0318909,0.0288391,0.0180054,-0.0485229,-0.181427,-0.000457764,0.0109863
767,0.0283813,-0.0143433,0.0674438,0.174561,0.0283813,-0.0471497,-0.173035,0.0236511,0.0315857
767,-0.000915527,-0.0248718,0.0228882,0.0874329,0.00274658,-0.0613403,-0.126953,-0.00274658,0.0366211
767,0.0151062,-0.0117493,0.0778198,0.0642395,0.00442505,-0.0204468,-0.122833,0.00518799,0.0419617
767,0.0135803,-0.0187683,0.0473022,0.0341797,0.0108337,0.058136,-0.165253,0.0233459,0.037384
767,0.0169373,-0.0242615,0.0585938,0.070343,0.0294495,0.0912476,-0.13443,0.0358582,0.0866699
767,0.0149536,-0.0309753,0.0187683,0.00961304,0.0205994,0.070343,-0.124054,0.0274658,0.0358582
767,0.00778198,-0.000457764,0.0340271,-0.10437,0.0263977,0.0392151,-0.176849,0.040741,0.0540161
767,0.0166321,-0.0256348,0.0195312,-0.0285339,0.0404358,-0.0320435,-0.161133,0.00900269,0.0317383
767,0.0567627,-0.0062561,0.0260925,0.112457,0.0627136,-0.0514221,-0.114746,0.0204468,0.0326538
767,0.0245667,0.000457764,0.0123596,-0.0485229,0.0238037,-0.052948,-0.0132751,0.0344849,-0.00656128
768,0.0360107,0.0115967,-0.0163269,-0.142822,0.019989,0.0187683,-0.0289917,-0.0100708,0.0262451
768,0.00350952,-0.00152588,0.00808716,-0.0559998,0.00823975,-0.0209045,-0.00946045,-0.00793457,0.0205994
768,0.0102234,0.0454712,0.0349426,0.0379944,0.0346375,0.0488281,0.00991821,0.0187683,0.0112915
768,-0.0135803,0.0614929,0.0352478,-0.00717163,-0.0292969,0.0291443,-0.00549316,0.0221252,0.00640869
768,-0.0260925,0.0131226,0.0137329,-0.0878906,-0.0302124,0.00808716,0.000610352,0.0209045,0.00228882
768,-0.0328064,-0.000457764,0.0285339,-0.0442505,-0.000152588,0.00976562,0.070343,0.00228882,0.0170898
768,0.00137329,-0.0802612,0.0442505,-0.0723267,-0.00961304,-0.00930786,0.101624,-0.0062561,-0.000915527
768,0.0128174,-0.0784302,0.0582886,-0.00778198,-0.027771,-0.0265503,0.145569,-0.0183105,-0.0088501
768,0.000610352,-0.0393677,0.0712585,0.0668335,-0.0189209,-0.0758362,0.185699,-0.0119019,-0.0366211
768,0.0221252,-0.0109863,0.0668335,0.0863647,-0.0137329,-0.0106812,0.193176,0.0157166,-0.0038147
